PE UV       SUBTECH     SPECTRUM    ASCII       PEDS        4.00        
   -1
Sample717.Sample.asc
11/12/13
14:11:14.00
11/12/13
14:11:14.00
Analyst
Specchio solarlux su Pilkington 0.95 mm; misura 13/dic/2011
250.000000
1
Lambda 950
950N6032301
PerkinElmer UV WinLab 5.1.5.0637 / 1.61.00 Lambda 900

0
0
3350/servo 860.8/2
0
0
UV/VIS
1
1
1
RBeamAtt,SBeamAtt,150mm sphere / downward view
0
0
0
0
Program
Program
3350/servo 860.8/2
3350/1 860.8/1
3350/1 860.8/1
0
1
 
 
 
0
 
860.8
319.2
860.8
Front
100
 
S:100 R:100
 
0
0
0
 
0
 
 
 
0
 
 
0
0
0
0
0
 
 
 
 
0
0
#HDR
-1
-1
#GR
nm
%T
1.0
0.0
2500.000000
-1.000000
2251
8
113.804626
6.140246
#DATA
2500	96.79479305456
2499	97.68173548177
2498	96.85367325614
2497	96.97223367751
2496	97.21546901916
2495	96.99875328743
2494	96.77389204632
2493	96.68071345621
2492	97.00687598377
2491	96.48145188525
2490	97.27687565935
2489	97.19949443528
2488	97.0595439521
2487	97.06204184584
2486	97.19657303848
2485	97.55855777347
2484	97.34116596746
2483	97.04658125055
2482	97.13548350162
2481	97.36636446448
2480	97.80383092892
2479	97.18848270037
2478	97.21326180067
2477	97.03921112953
2476	97.22289593175
2475	97.40088435721
2474	96.78915632924
2473	96.96964745582
2472	97.26611443762
2471	97.09063491086
2470	97.88022923058
2469	97.34172424081
2468	97.60071921353
2467	97.78240991237
2466	97.53762152979
2465	97.30816982687
2464	97.57747052804
2463	98.55704034265
2462	97.39635281017
2461	96.45799425414
2460	97.28471722212
2459	97.89725128085
2458	97.768271041
2457	97.61558180003
2456	97.79961485048
2455	97.48582998066
2454	96.96492132047
2453	97.62842613495
2452	97.68125736363
2451	97.6119193582
2450	97.42008174918
2449	97.71038906927
2448	97.52861784056
2447	97.9212723834
2446	97.60403826096
2445	97.29034781701
2444	97.52473078698
2443	98.65755719391
2442	97.95932771982
2441	97.43013430542
2440	97.79093865266
2439	97.9059760639
2438	97.87907669042
2437	97.88954452457
2436	97.86521587429
2435	98.07544356208
2434	98.28130002202
2433	98.06917033485
2432	97.74739321284
2431	98.14445721573
2430	97.56229615465
2429	97.98555486663
2428	97.85788130757
2427	98.52058314149
2426	98.52763157165
2425	98.46424286908
2424	98.91518755948
2423	98.43527607454
2422	98.47841738438
2421	98.4776893674
2420	98.34421444039
2419	98.52614486186
2418	98.4401703532
2417	98.43783711845
2416	98.20334476901
2415	97.52843135359
2414	98.33957795554
2413	98.51075234426
2412	98.23578997031
2411	98.29151868235
2410	98.24335760024
2409	98.7420354065
2408	98.20724140234
2407	98.18474368943
2406	98.42198104632
2405	98.40111570858
2404	98.18722525178
2403	98.4242231599
2402	98.59956997203
2401	98.08208240633
2400	97.97277861118
2399	98.44616498899
2398	98.33434919027
2397	98.65007381886
2396	98.36814174516
2395	98.39798403714
2394	98.23095825886
2393	98.0162446762
2392	98.31400071177
2391	98.07759608202
2390	98.27984529506
2389	98.55121841531
2388	98.6848300176
2387	99.0933501931
2386	98.35173854406
2385	98.15404878608
2384	98.40148323981
2383	98.38386079698
2382	98.44736050904
2381	98.33629545447
2380	98.30441519742
2379	98.10065548803
2378	97.8846313162
2377	98.40986372121
2376	98.59013495438
2375	98.33593403684
2374	98.44769077789
2373	98.67943389548
2372	98.9214250248
2371	98.88247633862
2370	98.49317237624
2369	98.5312207316
2368	98.62014961808
2367	98.39374286665
2366	98.50602232445
2365	98.59973838191
2364	98.48133454716
2363	98.52770266527
2362	98.77194331427
2361	98.70616451902
2360	98.33925435363
2359	98.15082774501
2358	98.34329600154
2357	98.82797929101
2356	98.62056360243
2355	98.37149204504
2354	98.48523678452
2353	98.58847801123
2352	98.59004768791
2351	98.41246699819
2350	98.42982970118
2349	98.42877271778
2348	98.61346701807
2347	98.54569463526
2346	98.74714851069
2345	98.73262695694
2344	98.54562081621
2343	98.53504531236
2342	98.63491443052
2341	98.50470926208
2340	98.3132139999
2339	98.27858680593
2338	98.60403095623
2337	98.66157812402
2336	98.65368176553
2335	98.65868726495
2334	98.43233786444
2333	98.21133441287
2332	98.38213404236
2331	98.45762699569
2330	98.4112455945
2329	98.31918415441
2328	98.68921206947
2327	98.4837752009
2326	98.41937606944
2325	98.52559097579
2324	98.35848495474
2323	98.54597890966
2322	98.73340730241
2321	98.65085858319
2320	98.92327861237
2319	98.70033337443
2318	98.46431387053
2317	98.74645159093
2316	98.82036066528
2315	98.63087440547
2314	98.28431034004
2313	98.69062248268
2312	98.87628072648
2311	98.56552227481
2310	98.49515662363
2309	98.6174082424
2308	98.84185466552
2307	98.48857837789
2306	98.26045153281
2305	98.554534212
2304	98.84229880496
2303	98.59942239332
2302	98.59076386664
2301	98.84352804432
2300	98.732132553
2299	98.71982915396
2298	98.48204523077
2297	98.61478046546
2296	98.54882527037
2295	98.50869783773
2294	98.65799891505
2293	98.75682415043
2292	98.72047652645
2291	98.58920416305
2290	98.56176883999
2289	98.28130582644
2288	98.49501564766
2287	98.33861843995
2286	98.51731876292
2285	98.43327103661
2284	98.44429480862
2283	98.36275866885
2282	98.79440959372
2281	98.60082414274
2280	98.45244622441
2279	98.57348420666
2278	98.76888549769
2277	98.62117558733
2276	98.82484323298
2275	98.54228469035
2274	98.43149490804
2273	98.43409861242
2272	98.2247907948
2271	98.52023905967
2270	98.64361351306
2269	98.06523787509
2268	98.65760798703
2267	98.38761661666
2266	98.52341255683
2265	98.4480108812
2264	98.81995906572
2263	98.52682412649
2262	98.60586824231
2261	98.68019463162
2260	98.53581367997
2259	98.49461622716
2258	98.71269458269
2257	98.64037008036
2256	98.42592615579
2255	98.59639256906
2254	98.41156427696
2253	98.63353680761
2252	98.32739168041
2251	98.50451244177
2250	98.23425148146
2249	98.53599707481
2248	98.49265578487
2247	98.18876228348
2246	98.15429684566
2245	98.15715829014
2244	98.42392373554
2243	98.20264167538
2242	98.26687232903
2241	98.06689659687
2240	98.15229821255
2239	98.38905398263
2238	98.42988803358
2237	98.61610558669
2236	98.37289903661
2235	98.35114959823
2234	98.2436124261
2233	98.5459029341
2232	98.35216900876
2231	98.58001148803
2230	98.27462810941
2229	98.38920723797
2228	98.67762861171
2227	98.42843312226
2226	98.56936595129
2225	98.47931876699
2224	98.28715726583
2223	98.33073843478
2222	98.07705148656
2221	98.41234136335
2220	98.33982636404
2219	98.46013876967
2218	98.38285396933
2217	98.41837907589
2216	98.24518553301
2215	98.1438968795
2214	98.22809884793
2213	98.45452413182
2212	98.31544386548
2211	98.29883708991
2210	98.44922019434
2209	98.57721493205
2208	98.73498669196
2207	98.43623440902
2206	98.55131911439
2205	98.48679949245
2204	98.58864825794
2203	98.54617692984
2202	98.65093062081
2201	98.67894834634
2200	98.90744801842
2199	98.70730428236
2198	98.66793159621
2197	98.84010920289
2196	98.84400189834
2195	98.79911128029
2194	98.66507778627
2193	98.68350533335
2192	98.65740800566
2191	98.82365661014
2190	98.72560542709
2189	98.79955745219
2188	99.05139746863
2187	98.90724950216
2186	99.09556887092
2185	99.06713528464
2184	99.08106080913
2183	99.23781871243
2182	99.09587219363
2181	99.12710434453
2180	99.16775374013
2179	99.22176163804
2178	99.3675000465
2177	99.25377012394
2176	99.29999048476
2175	99.25868097331
2174	99.33387796519
2173	99.40368873526
2172	99.28261647849
2171	99.4389201103
2170	99.55173573786
2169	99.44733867541
2168	99.36196417517
2167	99.25874636354
2166	99.39684236839
2165	99.78021999726
2164	99.67004765017
2163	99.62165764353
2162	99.48876610816
2161	99.41067888701
2160	99.6204379132
2159	99.61305571324
2158	99.57031399413
2157	99.50755471722
2156	99.64707084533
2155	99.78105890179
2154	99.71719923919
2153	99.70681278834
2152	99.65022591692
2151	99.60530774481
2150	99.56696944185
2149	99.69983170399
2148	99.78900118651
2147	99.73496391226
2146	99.68186172975
2145	99.76073859772
2144	99.93075135935
2143	99.82758955037
2142	99.82372409119
2141	99.71432223268
2140	99.63527853917
2139	99.69764541093
2138	99.84145863062
2137	99.74939656486
2136	99.78873187657
2135	99.73977797376
2134	99.74103055829
2133	99.68696752026
2132	99.8105655909
2131	99.92133455421
2130	99.80778725371
2129	99.83934133002
2128	99.81979729919
2127	99.68307143879
2126	99.73724890526
2125	99.87076097052
2124	99.88712819267
2123	99.9298311017
2122	99.89699680673
2121	99.89986973108
2120	99.87979472158
2119	99.84424233998
2118	99.93069567114
2117	100.0211073364
2116	99.97743629424
2115	99.91558089501
2114	99.94991170949
2113	99.97426551164
2112	99.94469019553
2111	100.0064375537
2110	100.0340702938
2109	99.95271068764
2108	100.0245369349
2107	99.99305895596
2106	100.0153474254
2105	100.1134022754
2104	99.99827744007
2103	99.87566773311
2102	100.0406748726
2101	100.0299861921
2100	99.96347990322
2099	100.0258047914
2098	99.96661176069
2097	99.98214229116
2096	100.1289484095
2095	100.1761805741
2094	100.1059005466
2093	100.0817849743
2092	99.89425139263
2091	99.97266052991
2090	100.0813305045
2089	100.0128299469
2088	99.9774351717
2087	99.99853582708
2086	100.0921364451
2085	100.0988607816
2084	99.9343621005
2083	100.0221411649
2082	99.97750680687
2081	100.0343973946
2080	100.1072753326
2079	100.0324958122
2078	100.0723244225
2077	100.092761693
2076	100.0751789163
2075	100.0951446201
2074	100.1998911111
2073	100.2258430402
2072	100.1158810651
2071	100.1173226921
2070	100.062269926
2069	100.1438846296
2068	100.1935875605
2067	100.1289061417
2066	100.0920047449
2065	100.0670473448
2064	100.1734194403
2063	100.0425281695
2062	100.0822131158
2061	100.1403585461
2060	100.2497383049
2059	100.2794982199
2058	100.2327380896
2057	100.2031311145
2056	100.2695694385
2055	100.1767149923
2054	100.0569282518
2053	100.1805843172
2052	100.2396160079
2051	100.2191130868
2050	100.2487401666
2049	100.2451113899
2048	100.203848792
2047	100.1844600997
2046	100.2191882743
2045	100.2626144402
2044	100.1646860851
2043	100.1238235777
2042	100.2170482999
2041	100.1646681126
2040	100.1767721138
2039	100.1793229528
2038	100.2874544116
2037	100.2632057207
2036	100.260275016
2035	100.1941160565
2034	100.2683152765
2033	100.2310685931
2032	100.2990456663
2031	100.2160172168
2030	100.2666159894
2029	100.2880044077
2028	100.295670463
2027	100.2861058073
2026	100.2101722815
2025	100.3394522096
2024	100.3601134128
2023	100.2833031345
2022	100.347779237
2021	100.2528557706
2020	100.313315789
2019	100.2843740677
2018	100.2267157446
2017	100.310161997
2016	100.3546925605
2015	100.3478143137
2014	100.3346697632
2013	100.2625413878
2012	100.3165353018
2011	100.270515003
2010	100.3053332251
2009	100.2633912178
2008	100.3530680101
2007	100.2682310698
2006	100.3681355492
2005	100.3217254056
2004	100.3409987904
2003	100.2447452364
2002	100.275573851
2001	100.3223467009
2000	100.3483774916
1999	100.3876613668
1998	100.3184077154
1997	100.3875429026
1996	100.3398045273
1995	100.4441737208
1994	100.3418777583
1993	100.3058964665
1992	100.3610419755
1991	100.4033851325
1990	100.3639924504
1989	100.393525983
1988	100.3366735621
1987	100.4018346281
1986	100.4173732047
1985	100.4501969981
1984	100.4060782101
1983	100.4472296732
1982	100.4084912978
1981	100.350992697
1980	100.3437926156
1979	100.3650543221
1978	100.4617659798
1977	100.4829634733
1976	100.4716698348
1975	100.5211994397
1974	100.4452451794
1973	100.4366795958
1972	100.4936052301
1971	100.5159551565
1970	100.441747871
1969	100.5225373864
1968	100.4164426412
1967	100.4708923893
1966	100.5340901083
1965	100.5089603949
1964	100.4400925157
1963	100.4940953935
1962	100.4204069749
1961	100.494229998
1960	100.545508296
1959	100.5672424194
1958	100.4918360053
1957	100.511664619
1956	100.5413933653
1955	100.4359670919
1954	100.4969718444
1953	100.5484712506
1952	100.5233132639
1951	100.5269637318
1950	100.4392163839
1949	100.5719350301
1948	100.530630348
1947	100.6088510916
1946	100.5556668924
1945	100.5671034312
1944	100.6256695347
1943	100.6706529112
1942	100.5920508869
1941	100.6327187986
1940	100.5995626934
1939	100.6850723636
1938	100.5920151816
1937	100.6160581047
1936	100.665730395
1935	100.5873013443
1934	100.5668148962
1933	100.5791339568
1932	100.7185958815
1931	100.7692955282
1930	100.6943444891
1929	100.6558059382
1928	100.6924903856
1927	100.7160598431
1926	100.698150412
1925	100.7163532557
1924	100.6346346577
1923	100.6662987478
1922	100.6168250112
1921	100.6545985785
1920	100.6158123768
1919	100.7234220005
1918	100.7313066316
1917	100.7130623171
1916	100.6989009874
1915	100.695256258
1914	100.7574349637
1913	100.8040474026
1912	100.7946667128
1911	100.6913545808
1910	100.7151137065
1909	100.6556585331
1908	100.7587997218
1907	100.7733292531
1906	100.7155769644
1905	100.7497991741
1904	100.781996903
1903	100.7954802518
1902	100.7202729382
1901	100.6704233817
1900	100.671282676
1899	100.7076061908
1898	100.7498436731
1897	100.7094753548
1896	100.7089317155
1895	100.7864039223
1894	100.7833527869
1893	100.763380271
1892	100.8051691808
1891	100.760934435
1890	100.8828569567
1889	100.9072202
1888	100.7664358993
1887	100.7815396853
1886	100.7772284586
1885	100.8072559347
1884	100.8639737721
1883	100.8613968633
1882	100.806003473
1881	100.7916832993
1880	100.769424317
1879	100.7852251632
1878	100.8235527894
1877	100.8634688204
1876	100.8523885517
1875	100.8415044397
1874	100.8080139465
1873	100.8201527001
1872	100.7751455564
1871	100.7173250257
1870	100.8398989063
1869	100.9234766189
1868	100.8762153702
1867	100.8950221488
1866	100.867345451
1865	100.8499934047
1864	100.8735961828
1863	100.8874955918
1862	100.8837729643
1861	100.8978583476
1860	100.9301632222
1859	100.9189291436
1858	100.9050169003
1857	100.8896642432
1856	100.9466454074
1855	100.9768286636
1854	100.8854565282
1853	100.8852309382
1852	100.919653802
1851	100.8943797451
1850	100.9628864085
1849	100.9541711474
1848	100.9154709355
1847	100.9443125874
1846	100.9256260302
1845	101.0128944703
1844	101.0273076009
1843	100.9568103674
1842	100.9628103819
1841	101.0041080067
1840	101.0262645116
1839	100.940259172
1838	100.8697078943
1837	100.9474693179
1836	101.0259633884
1835	101.0406191789
1834	100.981508715
1833	100.9800425759
1832	101.0021966635
1831	100.9911398802
1830	100.9915171392
1829	101.0028116215
1828	100.9619904272
1827	101.0060702032
1826	101.0835207936
1825	101.0849321066
1824	101.0326396969
1823	101.0178715925
1822	101.0757794439
1821	101.0877830728
1820	101.0635590218
1819	101.0500432141
1818	101.0583812464
1817	101.0757343914
1816	101.0667521165
1815	101.0715975115
1814	101.0895811827
1813	101.0912666951
1812	101.1117273431
1811	101.1181160574
1810	101.0768692556
1809	101.0972587644
1808	101.1074669716
1807	101.1484370517
1806	101.1309542497
1805	101.1044663988
1804	101.1295225102
1803	101.13713615
1802	101.1305761817
1801	101.1272683833
1800	101.112321516
1799	101.1344976948
1798	101.1780911671
1797	101.1447762627
1796	101.1429609317
1795	101.1409778855
1794	101.1910214277
1793	101.1908633874
1792	101.1814512363
1791	101.1903401451
1790	101.2457180143
1789	101.2335674134
1788	101.2018977764
1787	101.2309104957
1786	101.2568966696
1785	101.2399252911
1784	101.2155715879
1783	101.2260031473
1782	101.2029547121
1781	101.2336966247
1780	101.2684902228
1779	101.2434711704
1778	101.2084140377
1777	101.2418839668
1776	101.195780263
1775	101.24975433
1774	101.2743647882
1773	101.2625606591
1772	101.2883453788
1771	101.2989948924
1770	101.2528585764
1769	101.2674909081
1768	101.2345395753
1767	101.2749907027
1766	101.3075099122
1765	101.2944779652
1764	101.3224286275
1763	101.3191512598
1762	101.3362631656
1761	101.2806395438
1760	101.2810396407
1759	101.3291801801
1758	101.3409963851
1757	101.332479949
1756	101.3671882443
1755	101.3732451361
1754	101.3474164351
1753	101.3542939189
1752	101.3595285575
1751	101.3367728281
1750	101.418230699
1749	101.42593384
1748	101.3912934282
1747	101.3781916252
1746	101.4089872521
1745	101.381638697
1744	101.4266417757
1743	101.3850279456
1742	101.3977214641
1741	101.4070137689
1740	101.4062026573
1739	101.4228158863
1738	101.4257113658
1737	101.4745830607
1736	101.4033725872
1735	101.4119914906
1734	101.4302939744
1733	101.4799817421
1732	101.4945353897
1731	101.4771796972
1730	101.4223326738
1729	101.5119594318
1728	101.4292632182
1727	101.4783092486
1726	101.5644128552
1725	101.4992318841
1724	101.4672262478
1723	101.4987578151
1722	101.5162726399
1721	101.5000836442
1720	101.480139666
1719	101.5568257102
1718	101.5501982422
1717	101.51453925
1716	101.5438912807
1715	101.5323523291
1714	101.5367501416
1713	101.536059515
1712	101.544507287
1711	101.5742903711
1710	101.5643055472
1709	101.522606546
1708	101.5259620665
1707	101.5478024497
1706	101.5776208307
1705	101.5467280747
1704	101.5385136619
1703	101.584011756
1702	101.5721207606
1701	101.5952299601
1700	101.6033134586
1699	101.6028446549
1698	101.625961369
1697	101.6131460222
1696	101.6125302027
1695	101.6670950157
1694	101.6229615422
1693	101.6478135719
1692	101.6310294488
1691	101.6170046661
1690	101.6564221099
1689	101.6507676672
1688	101.6252459402
1687	101.6673771536
1686	101.6509241554
1685	101.6531358004
1684	101.6651641551
1683	101.6562851316
1682	101.6576025272
1681	101.6976356645
1680	101.7194518575
1679	101.7078270881
1678	101.6963498004
1677	101.7067736996
1676	101.6764647125
1675	101.6970344141
1674	101.7353527419
1673	101.6732532567
1672	101.7117598186
1671	101.7339467335
1670	101.7265636622
1669	101.549793425
1668	101.5474370423
1667	101.5399640278
1666	101.5634895868
1665	101.601365001
1664	101.7309885643
1663	101.7668959905
1662	101.8451883283
1661	101.8053278928
1660	101.7751796905
1659	101.8062128794
1658	101.7834115497
1657	101.7717216454
1656	101.7739704559
1655	101.767088331
1654	101.815514188
1653	101.8372054962
1652	101.8104702556
1651	101.8139266186
1650	101.7994987204
1649	101.8364575405
1648	101.8434670777
1647	101.8311262296
1646	101.8263901993
1645	101.8222032582
1644	101.825300098
1643	101.8326188304
1642	101.861073947
1641	101.8686167441
1640	101.8647851045
1639	101.8524360464
1638	101.8773722616
1637	101.8872127666
1636	101.9125355891
1635	101.8913639747
1634	101.8749238227
1633	101.8714401052
1632	101.8840635439
1631	101.8944211659
1630	101.9001199518
1629	101.8785488995
1628	101.8819779457
1627	101.8894299028
1626	101.9101504911
1625	101.9196984095
1624	101.916741204
1623	101.8993131647
1622	101.9261660646
1621	101.9447408605
1620	101.9330181677
1619	101.9318401723
1618	101.9432177323
1617	101.9566180507
1616	101.9460896647
1615	101.9410722289
1614	101.9537972794
1613	101.9755680099
1612	101.9694969379
1611	101.9528501086
1610	101.9593193371
1609	101.9725716549
1608	101.9775154667
1607	101.9839201322
1606	101.982486119
1605	101.9951529161
1604	101.9860108472
1603	101.9762872177
1602	101.9845309562
1601	101.995108412
1600	101.9822021847
1599	101.992187436
1598	102.0108150882
1597	102.0117028347
1596	102.0019653163
1595	102.0112386602
1594	102.038287909
1593	102.039107571
1592	102.0170062492
1591	102.0104517754
1590	102.0149704177
1589	102.0421436894
1588	102.0380722324
1587	102.016968325
1586	102.0255939954
1585	102.0455342698
1584	102.0511085256
1583	102.056506012
1582	102.0695494894
1581	102.0637620804
1580	102.0679710887
1579	102.0848586507
1578	102.0725321898
1577	102.0638598852
1576	102.0850477922
1575	102.0859869692
1574	102.0705325398
1573	102.0843396394
1572	102.0986105634
1571	102.0938966799
1570	102.0926128073
1569	102.0984474089
1568	102.1131550424
1567	102.1200637228
1566	102.1005376122
1565	102.1093030967
1564	102.1337739981
1563	102.1243005984
1562	102.1173834096
1561	102.1284909327
1560	102.142644875
1559	102.1437127914
1558	102.1475718606
1557	102.1423355389
1556	102.1540729724
1555	102.146007153
1554	102.1527704224
1553	102.1667291968
1552	102.1618909375
1551	102.1586485469
1550	102.1549962054
1549	102.1713001283
1548	102.1710232875
1547	102.1706648713
1546	102.1715586248
1545	102.1901315741
1544	102.2029051932
1543	102.1903936033
1542	102.2132881831
1541	102.2029906634
1540	102.1832034166
1539	102.1898878643
1538	102.1948889094
1537	102.2034391131
1536	102.2081941123
1535	102.2055645827
1534	102.2249033487
1533	102.2127324856
1532	102.2246114352
1531	102.228399151
1530	102.2299530661
1529	102.231501054
1528	102.2342535905
1527	102.2400766999
1526	102.2405776287
1525	102.2256058506
1524	102.2559283387
1523	102.2543980941
1522	102.2292969211
1521	102.2574917142
1520	102.2669216464
1519	102.262925081
1518	102.2718610579
1517	102.2666578015
1516	102.2674373223
1515	102.2941975073
1514	102.3061432525
1513	102.2874611514
1512	102.2693634172
1511	102.2662861302
1510	102.2729110094
1509	102.2912578119
1508	102.2982680194
1507	102.3022079804
1506	102.2954254654
1505	102.2978959145
1504	102.3061257398
1503	102.3065352939
1502	102.3085839303
1501	102.3183596903
1500	102.3336377695
1499	102.3336659083
1498	102.3692637436
1497	102.3410324589
1496	102.3261814425
1495	102.3397570903
1494	102.3212694698
1493	102.333532873
1492	102.3449444942
1491	102.3554352004
1490	102.3314350565
1489	102.3482448921
1488	102.3502948759
1487	102.3540004969
1486	102.3418754395
1485	102.3576720131
1484	102.3582530997
1483	102.3588266108
1482	102.3627602062
1481	102.3755350268
1480	102.370888366
1479	102.3826523428
1478	102.3891431563
1477	102.3954171795
1476	102.4030641485
1475	102.3801318481
1474	102.3930886977
1473	102.3956186745
1472	102.3889063568
1471	102.4081214206
1470	102.4200335099
1469	102.4065649668
1468	102.4048071817
1467	102.3854589353
1466	102.3972457501
1465	102.4289368183
1464	102.429407657
1463	102.4197016768
1462	102.4323692286
1461	102.4026645083
1460	102.4171025324
1459	102.4166307888
1458	102.4125685069
1457	102.4216775342
1456	102.441109175
1455	102.4064451511
1454	102.4403300912
1453	102.4315854458
1452	102.4390223703
1451	102.4369264827
1450	102.4548141726
1449	102.4460519089
1448	102.4380705641
1447	102.4561273009
1446	102.4493747773
1445	102.4540007446
1444	102.4521049021
1443	102.4524698523
1442	102.4522314979
1441	102.457108162
1440	102.441697289
1439	102.4539684357
1438	102.4784237454
1437	102.4696129221
1436	102.4608750992
1435	102.4572023442
1434	102.4916099643
1433	102.4761583555
1432	102.4905054727
1431	102.4680556246
1430	102.4884629213
1429	102.4842974156
1428	102.4932149541
1427	102.4750078123
1426	102.4826059701
1425	102.5036175383
1424	102.505717254
1423	102.5027938898
1422	102.4845187373
1421	102.5017045369
1420	102.4912368491
1419	102.4960243131
1418	102.4845967425
1417	102.5039031506
1416	102.5157455743
1415	102.5305909677
1414	102.517707153
1413	102.5310918505
1412	102.5265837919
1411	102.5433575246
1410	102.5517580749
1409	102.5512887893
1408	102.5782842017
1407	102.5745465332
1406	102.6066413404
1405	102.5829553212
1404	102.5748513749
1403	102.6103947118
1402	102.6135230842
1401	102.629044225
1400	102.6348409689
1399	102.644225119
1398	102.6472634173
1397	102.6705718271
1396	102.6809352497
1395	102.6932899433
1394	102.7018527983
1393	102.7110203092
1392	102.7195524797
1391	102.7191175733
1390	102.7475741992
1389	102.7597834449
1388	102.7602012756
1387	102.76709726
1386	102.8064261483
1385	102.7885405744
1384	102.7848136586
1383	102.8050521171
1382	102.8211499923
1381	102.8326723642
1380	102.8282306352
1379	102.8182776157
1378	102.8360286901
1377	102.8618084002
1376	102.8505738721
1375	102.8630601107
1374	102.8815916209
1373	102.8661088926
1372	102.8842586359
1371	102.8722087475
1370	102.8728461172
1369	102.9046237216
1368	102.916796112
1367	102.919230177
1366	102.9180378072
1365	102.9259471343
1364	102.9440918221
1363	102.9446562908
1362	102.9357019773
1361	102.9486388155
1360	102.9473904718
1359	102.9517866303
1358	102.9376030721
1357	102.9339905729
1356	103.0251468739
1355	103.0050865796
1354	103.0052721956
1353	102.964683211
1352	102.9162277767
1351	102.9575792865
1350	103.0070364295
1349	103.0179279742
1348	103.0359126651
1347	103.048029835
1346	103.0489360899
1345	103.0397382741
1344	103.0529483437
1343	103.0480851352
1342	103.0547413234
1341	103.0750465981
1340	103.0830883863
1339	103.0885384376
1338	103.0960450605
1337	103.1110341904
1336	103.1097697655
1335	103.1033990567
1334	103.1120307102
1333	103.1277321129
1332	103.1397035065
1331	103.1338847801
1330	103.1363748777
1329	103.1414732992
1328	103.1487057273
1327	103.163847581
1326	103.1698211702
1325	103.1795467829
1324	103.1948116854
1323	103.2049270589
1322	103.205200063
1321	103.2184976083
1320	103.2346405457
1319	103.2290584604
1318	103.2270905983
1317	103.2395115989
1316	103.2499197159
1315	103.2529359611
1314	103.2608189922
1313	103.2681827852
1312	103.2776705009
1311	103.2892760916
1310	103.2913820567
1309	103.3016105697
1308	103.3156764617
1307	103.3067665155
1306	103.3100288271
1305	103.3247883017
1304	103.3317325841
1303	103.3376329827
1302	103.3369326767
1301	103.3460721127
1300	103.3609027513
1299	103.3752065448
1298	103.3852585707
1297	103.3881019321
1296	103.3876820535
1295	103.3950790901
1294	103.4083005404
1293	103.414803187
1292	103.4220465154
1291	103.4297789705
1290	103.4470544186
1289	103.4577800904
1288	103.4627758579
1287	103.4684794788
1286	103.4791564967
1285	103.48264068
1284	103.488476554
1283	103.4886843697
1282	103.507362972
1281	103.5072398326
1280	103.5338394437
1279	103.5281168103
1278	103.5370305841
1277	103.5512157985
1276	103.5540742309
1275	103.561136906
1274	103.5767802251
1273	103.5840237267
1272	103.5870636921
1271	103.5958412151
1270	103.616956284
1269	103.6267367067
1268	103.6332703109
1267	103.6490134696
1266	103.660316863
1265	103.6595488588
1264	103.6713022935
1263	103.6741610806
1262	103.6886670106
1261	103.7001761143
1260	103.7080601086
1259	103.7138249409
1258	103.7301001164
1257	103.7327982237
1256	103.7320342524
1255	103.7532413405
1254	103.7628297851
1253	103.7675900605
1252	103.7796087282
1251	103.7831289478
1250	103.8070003081
1249	103.8137864356
1248	103.8293280748
1247	103.8456695625
1246	103.8422782371
1245	103.8635182316
1244	103.8737556937
1243	103.8824791228
1242	103.9027688942
1241	103.9105277114
1240	103.9167781911
1239	103.919893653
1238	103.9321403183
1237	103.9435637692
1236	103.9718725976
1235	103.9760275728
1234	103.9843762958
1233	103.9901797392
1232	103.9927195155
1231	104.002099398
1230	104.0185269716
1229	104.0546847211
1228	104.0503768769
1227	104.0659093629
1226	104.0745785346
1225	104.1027429097
1224	104.1071408735
1223	104.0983858487
1222	104.1173255078
1221	104.1395026478
1220	104.1467688391
1219	104.1626958152
1218	104.1654058235
1217	104.1833485215
1216	104.1770608394
1215	104.2017696841
1214	104.2173173842
1213	104.2312707862
1212	104.2429252041
1211	104.2484570337
1210	104.2597507728
1209	104.2831277853
1208	104.2773361974
1207	104.3212707863
1206	104.3173710997
1205	104.3267333282
1204	104.3448683855
1203	104.3784495761
1202	104.3774797394
1201	104.3998522211
1200	104.3815696749
1199	104.4166106508
1198	104.4320101722
1197	104.4570062389
1196	104.4508046234
1195	104.4629846765
1194	104.4991082704
1193	104.4954299
1192	104.5099742313
1191	104.5330017987
1190	104.5372849278
1189	104.561123024
1188	104.5598926419
1187	104.5969896297
1186	104.6083863836
1185	104.6326577371
1184	104.6297239126
1183	104.6412359183
1182	104.6599962642
1181	104.6718452271
1180	104.7115245747
1179	104.7088514111
1178	104.7222018766
1177	104.7391707004
1176	104.7539635753
1175	104.770974158
1174	104.7906292212
1173	104.7989730607
1172	104.8198051243
1171	104.827347573
1170	104.8443466606
1169	104.8676100148
1168	104.8815444844
1167	104.8952587672
1166	104.9087269471
1165	104.9160283135
1164	104.9487937876
1163	104.9736941528
1162	104.9909243767
1161	104.9947237216
1160	105.0101824661
1159	105.025533493
1158	105.0544617847
1157	105.0608020502
1156	105.0782311386
1155	105.0938989527
1154	105.1155632152
1153	105.1397353743
1152	105.1433372767
1151	105.1639868058
1150	105.1929936588
1149	105.2100159512
1148	105.2329248128
1147	105.2472390444
1146	105.2535129875
1145	105.2699591606
1144	105.2930109044
1143	105.3330816578
1142	105.3471767955
1141	105.3522573452
1140	105.3639134869
1139	105.4043792779
1138	105.426026265
1137	105.4409229025
1136	105.4405026959
1135	105.4627718346
1134	105.5016807491
1133	105.5108371799
1132	105.5159833129
1131	105.5540095721
1130	105.5789426192
1129	105.5815968807
1128	105.5946436784
1127	105.6250618295
1126	105.6598782426
1125	105.688193515
1124	105.698505845
1123	105.7112559725
1122	105.7359796925
1121	105.7308651304
1120	105.7397113049
1119	105.7668709731
1118	105.7688256235
1117	105.7530158849
1116	105.7688871879
1115	105.8021124855
1114	105.8289793915
1113	105.8511664861
1112	105.8691090261
1111	105.885714736
1110	105.9212804706
1109	105.94782442
1108	105.9610130646
1107	105.9853068174
1106	106.026154034
1105	106.0396030231
1104	106.0547922426
1103	106.0648550274
1102	106.092824039
1101	106.130148167
1100	106.1535490611
1099	106.1737661083
1098	106.2015619166
1097	106.2214080417
1096	106.2609081154
1095	106.2902840461
1094	106.3007551332
1093	106.3203382395
1092	106.3606891974
1091	106.4375805896
1090	106.5011333971
1089	106.4862829907
1088	106.4716775921
1087	106.4957781728
1086	106.50385298
1085	106.5286777959
1084	106.5694184148
1083	106.6580254122
1082	106.7826934357
1081	106.8685295381
1080	106.9102568141
1079	106.9459813555
1078	106.9722219282
1077	106.9890100492
1076	106.9074566592
1075	106.8230538782
1074	106.8503664333
1073	106.8850101165
1072	106.9059602672
1071	106.940758718
1070	106.9885958183
1069	107.0031633984
1068	107.0315429467
1067	107.0658713737
1066	107.0933846314
1065	107.1298033313
1064	107.1706709178
1063	107.2017798205
1062	107.2384596547
1061	107.2705804792
1060	107.3606934243
1059	107.4384149535
1058	107.4763749196
1057	107.5086469992
1056	107.5309211486
1055	107.5672775155
1054	107.6162081463
1053	107.6500150173
1052	107.6726886998
1051	107.7220012555
1050	107.7570367227
1049	107.7957923853
1048	107.8358789088
1047	107.8614802388
1046	107.913821181
1045	107.9570895103
1044	107.9865704499
1043	108.0414390312
1042	108.0829682072
1041	108.0967530245
1040	108.1302941264
1039	108.1733904353
1038	108.2190007773
1037	108.2612676436
1036	108.3094581612
1035	108.3454396532
1034	108.3912832006
1033	108.4384000214
1032	108.4627431653
1031	108.5221152439
1030	108.5541822367
1029	108.5833170647
1028	108.6418533779
1027	108.6891411768
1026	108.7400374248
1025	108.7668179169
1024	108.8064628873
1023	108.860337985
1022	108.9157970469
1021	108.9536409649
1020	109.0236009447
1019	109.0574556075
1018	109.082993272
1017	109.134703654
1016	109.1821480415
1015	109.2420328662
1014	109.3013436352
1013	109.3479697705
1012	109.3892467255
1011	109.4299585537
1010	109.4834882963
1009	109.5404277073
1008	109.6057577301
1007	109.6408991099
1006	109.6923001422
1005	109.7639019258
1004	109.8373806308
1003	109.8899969983
1002	109.9592482831
1001	109.9829119796
1000	110.0509823846
999	110.1239133107
998	110.1748241681
997	110.2013888914
996	110.2613254237
995	110.3345894879
994	110.4251956601
993	110.4874549966
992	110.515164869
991	110.5724936545
990	110.6360825282
989	110.7213347146
988	110.7974233824
987	110.8681972958
986	110.9203075084
985	110.9922996973
984	111.0639554418
983	111.0985193801
982	111.2123616844
981	111.2234283555
980	111.1252504071
979	111.1560621882
978	111.2119453802
977	111.2526289614
976	111.4758463225
975	111.6382592069
974	111.6562945315
973	111.5692943709
972	111.6280332158
971	111.6967076656
970	111.778111231
969	111.8900794205
968	111.9302285558
967	112.0352562385
966	112.3153965968
965	112.3671427018
964	112.4714076046
963	112.5959409406
962	112.6771929873
961	112.7138272164
960	112.7980806972
959	112.8837220646
958	112.9801927062
957	113.0981987174
956	113.2176932131
955	113.2703116506
954	113.3490525431
953	113.4197487091
952	113.5397754695
951	113.6086598574
950	113.7355241011
949	113.760164549
948	113.9582491598
947	114.027542542
946	114.1071920711
945	114.2062790682
944	114.3254855062
943	114.4019487314
942	114.5328166774
941	114.6374977251
940	114.7244472505
939	114.8971442878
938	114.9108129938
937	115.1206223825
936	115.1524426508
935	115.2944001462
934	115.4074171563
933	115.4757497139
932	115.5631863462
931	115.7446248578
930	115.8347163299
929	115.903105548
928	115.96297516
927	115.9583666205
926	116.0980915367
925	116.2089437972
924	116.4974694738
923	116.5478758493
922	116.6263190423
921	116.5991278393
920	116.7812976374
919	116.9345139989
918	116.9763937871
917	117.2779931807
916	117.6136122693
915	117.6891506121
914	117.7263006548
913	117.9286360516
912	118.0236122033
911	118.1587898654
910	118.3363728535
909	118.5963780059
908	118.7104389507
907	118.6674437881
906	118.7457061256
905	118.884576432
904	119.1455162642
903	119.2587163006
902	119.4594782329
901	119.4966147161
900	119.7705326775
899	119.9113949402
898	120.0815439064
897	120.1825531307
896	120.3576208232
895	120.4454574735
894	120.7325404927
893	120.7872757203
892	120.676176131
891	120.7361132504
890	121.0104106987
889	121.261064937
888	121.4651596071
887	121.4642333836
886	121.5723240677
885	121.7917672318
884	121.8784719108
883	121.927676802
882	122.1588980999
881	122.3589078208
880	122.7787216624
879	122.6628441506
878	122.9663959449
877	122.9127323344
876	123.2026236353
875	123.3602868402
874	123.5374301558
873	123.7065186023
872	123.7765271876
871	123.7957707831
870	124.3343762287
869	124.3542717971
868	124.4228427759
867	124.4879222215
866	124.8545732927
865	124.6942640778
864	124.8733293698
863	125.1975563815
862	125.0195746904
861	124.8497156998
860	125.2784379981
859	125.8021630682
858	126.133108387
857	126.6337128784
856	126.0724848988
855	126.1231680221
854	126.2445965247
853	126.2227314528
852	126.2630381242
851	126.4861524384
850	126.5862285569
849	126.662018115
848	126.8649137809
847	126.8081557053
846	126.8618876522
845	126.7450953857
844	126.83856948
843	127.0265344151
842	126.9339766577
841	127.1011232807
840	127.2208873816
839	127.0449417153
838	126.9349747492
837	127.0543025999
836	127.1616319929
835	127.1391616751
834	127.0922881935
833	127.1205689656
832	127.1614794212
831	127.0682273389
830	127.1088343598
829	127.1267025333
828	127.0832947733
827	127.0490271644
826	127.0378524747
825	127.0191942332
824	126.9585787643
823	126.9533224988
822	126.8287259411
821	126.8074628293
820	126.8577675681
819	126.6913182632
818	126.5390132585
817	126.4707849641
816	126.3414647151
815	126.3162314389
814	126.2387209549
813	126.0608519567
812	126.013651805
811	125.9498354183
810	125.8555803696
809	125.7402222412
808	125.6440657196
807	125.5363767504
806	125.3979764803
805	125.2619991905
804	125.2062725107
803	125.045353819
802	124.843090984
801	124.7695475525
800	124.6489487449
799	124.4986977369
798	124.4568153666
797	124.4002371164
796	124.2749661972
795	124.1669482587
794	124.0061478697
793	123.8033687852
792	123.673626236
791	123.5710112755
790	123.4230362472
789	123.2585673197
788	123.1309961521
787	123.0127553438
786	122.8255316297
785	122.6818055709
784	122.5524776719
783	122.386344889
782	122.3192038275
781	122.1890141913
780	122.0476430508
779	121.8871942912
778	121.7095032769
777	121.5908344324
776	121.4874284293
775	121.3732259699
774	121.221188909
773	121.0121537223
772	120.9031783076
771	120.8578522523
770	120.7231080099
769	120.5503517294
768	120.4216281974
767	120.2057150695
766	120.1179056335
765	120.023781997
764	119.9105882986
763	119.7165190915
762	119.5369155964
761	119.4498791994
760	119.4339353333
759	119.2752626388
758	119.129426825
757	119.0192008039
756	118.872574672
755	118.7228236849
754	118.5953388115
753	118.5044981637
752	118.3547478142
751	118.2463573467
750	118.1491622137
749	117.9615719192
748	117.8956348991
747	117.7939299112
746	117.6948142375
745	117.5202869418
744	117.4263967754
743	117.3224683649
742	117.1819737326
741	117.092384646
740	116.9973100506
739	116.8869185766
738	116.7918827016
737	116.696210672
736	116.5683869731
735	116.3990041318
734	116.3233625923
733	116.2228880605
732	116.1642726835
731	116.0720457772
730	115.9111054591
729	115.8234782638
728	115.7516140268
727	115.616763857
726	115.4873013686
725	115.4664375867
724	115.3323248104
723	115.2474207462
722	115.1845359682
721	115.0842632243
720	114.9650942278
719	114.8774407563
718	114.7792281121
717	114.7031736768
716	114.5645267817
715	114.4598352166
714	114.3740108774
713	114.2962951163
712	114.2352777997
711	114.1589969391
710	114.0461103038
709	113.938346897
708	113.8645803774
707	113.7793781886
706	113.6537433988
705	113.6395933956
704	113.5356747547
703	113.4617817289
702	113.3726435785
701	113.2588655554
700	113.1981292927
699	113.0827640499
698	113.0604504493
697	112.9746358179
696	112.8945772961
695	112.7971087655
694	112.744506936
693	112.6398483895
692	112.4960482042
691	112.4726026659
690	112.3818098863
689	112.3202705975
688	112.2318392912
687	112.1701291168
686	112.0984575131
685	111.998138458
684	111.923035022
683	111.7834210635
682	111.7476496253
681	111.7092148241
680	111.6268334314
679	111.4969759783
678	111.3894882773
677	111.35560877
676	111.3148532806
675	111.206965673
674	111.2155746866
673	111.050590662
672	110.9944860114
671	110.987274552
670	110.8491626717
669	110.7510516373
668	110.708772493
667	110.6464852044
666	110.5738756902
665	110.5532084179
664	110.4749336733
663	110.3736947765
662	110.2935217552
661	110.2666163037
660	110.1741832741
659	110.1045369962
658	110.0727995911
657	109.9656254119
656	109.9803412039
655	109.8628334797
654	109.7853128921
653	109.7401522427
652	109.6779802538
651	109.6309947804
650	109.5562571883
649	109.5132662579
648	109.4502424537
647	109.3816281653
646	109.3372521857
645	109.2722568691
644	109.2315835494
643	109.1433804006
642	109.1222381456
641	109.0213405427
640	108.9859222872
639	108.8990183671
638	108.8529186382
637	108.814062548
636	108.7636571382
635	108.7336889055
634	108.6643534776
633	108.6086468966
632	108.5804113863
631	108.4967318417
630	108.4080723825
629	108.3938417387
628	108.3453171921
627	108.2913810604
626	108.2182549155
625	108.1762526397
624	108.1315697198
623	108.0934407573
622	108.0320880613
621	107.9757098878
620	107.9337718293
619	107.8747896139
618	107.838745608
617	107.7912760866
616	107.7535659736
615	107.7291561437
614	107.6734072614
613	107.5883376332
612	107.5709856864
611	107.5094736086
610	107.4652499116
609	107.4420191886
608	107.3991460112
607	107.3376326368
606	107.2766023016
605	107.2501477297
604	107.1950172591
603	107.1924347529
602	107.1505796225
601	107.0925024868
600	107.035011167
599	106.9818490485
598	106.9392100405
597	106.9177981514
596	106.899150198
595	106.8426235926
594	106.8030422661
593	106.7484844345
592	106.7181561207
591	106.7112403407
590	106.6691080733
589	106.6068835597
588	106.5776524045
587	106.5470440672
586	106.501898224
585	106.4594051881
584	106.4265692522
583	106.3855175597
582	106.3619722922
581	106.3419446218
580	106.3074907964
579	106.2694156087
578	106.2264168331
577	106.2040237841
576	106.1684974229
575	106.1436588177
574	106.1169885086
573	106.0881322217
572	106.0372053079
571	105.9943468715
570	105.9613218856
569	105.9108648986
568	105.8921544855
567	105.8787987149
566	105.8409358765
565	105.798409676
564	105.7700310105
563	105.7360753084
562	105.6980638527
561	105.6683135053
560	105.6401572341
559	105.6070306366
558	105.5794028402
557	105.5353970556
556	105.4791603609
555	105.4567802353
554	105.4489454732
553	105.4263713483
552	105.3905668094
551	105.3324257541
550	105.295465932
549	105.2745636191
548	105.2384557901
547	105.221616737
546	105.214220655
545	105.1785016299
544	105.127840578
543	105.0695206264
542	105.0349099478
541	105.0279930527
540	105.0201198061
539	104.9725165741
538	104.943969974
537	104.9052404452
536	104.876562501
535	104.8728770817
534	104.8244138565
533	104.7873389975
532	104.7675681543
531	104.7356083051
530	104.7309228255
529	104.6859966705
528	104.6676015271
527	104.6552830091
526	104.6105499513
525	104.5838843186
524	104.5679145959
523	104.5575351108
522	104.5386136805
521	104.480701989
520	104.4511722247
519	104.4425727274
518	104.410447282
517	104.3919805423
516	104.3674846458
515	104.3433544063
514	104.3157103209
513	104.3068614141
512	104.2941088139
511	104.2627016514
510	104.2229439592
509	104.1990795939
508	104.1813078739
507	104.1596536631
506	104.1483970114
505	104.1476194834
504	104.1177827308
503	104.0936238676
502	104.0427099586
501	104.0171896063
500	104.0264196622
499	103.9670302271
498	103.9507604004
497	103.9736356499
496	103.9587183911
495	103.9418881249
494	103.9066326758
493	103.9005424187
492	103.8650209727
491	103.8614941572
490	103.8537439251
489	103.8238050279
488	103.8194605775
487	103.7859449355
486	103.7925757724
485	103.786932284
484	103.7786168431
483	103.752070911
482	103.740824266
481	103.7313018782
480	103.7152694491
479	103.7117558376
478	103.6826082271
477	103.6572614146
476	103.6574422079
475	103.6808928079
474	103.6334921065
473	103.6019568775
472	103.5848150425
471	103.5831351092
470	103.5696160268
469	103.5529406177
468	103.5324698192
467	103.5184380799
466	103.5345489104
465	103.5253742409
464	103.4974733701
463	103.5096497253
462	103.4995242217
461	103.4646468393
460	103.4441878651
459	103.4245154507
458	103.4567965928
457	103.4135470648
456	103.4210016438
455	103.3967490813
454	103.3967310055
453	103.3986169231
452	103.3579226184
451	103.3820598064
450	103.344293728
449	103.3188557223
448	103.3391001724
447	103.3235101749
446	103.3277741668
445	103.3380711253
444	103.2808702087
443	103.3191932384
442	103.2984460359
441	103.2506610683
440	103.2747212024
439	103.2292635365
438	103.2103579689
437	103.2345980839
436	103.2034250152
435	103.2818826193
434	103.2221520554
433	103.3141253433
432	103.232789971
431	103.1952690311
430	103.1909656697
429	103.1831885074
428	103.1367625916
427	103.1810408698
426	103.1810906418
425	103.1779487621
424	103.1859328854
423	103.1864295907
422	103.1720263252
421	103.1388089478
420	103.0842916049
419	103.0852155435
418	103.1113833438
417	103.1701380203
416	103.1672780443
415	103.1126166334
414	103.1347807204
413	103.1667858282
412	103.1222872878
411	103.1131396663
410	103.0720769764
409	103.0677802585
408	103.0188022525
407	103.0584632075
406	103.026777688
405	103.0277936791
404	102.9751823675
403	102.9536069203
402	102.9624875415
401	102.9224582125
400	102.8841485559
399	102.829767158
398	102.8055835729
397	102.75120375
396	102.685647561
395	102.6950443256
394	102.6530296208
393	102.5755652622
392	102.4765674319
391	102.4010104966
390	102.3548469789
389	102.2538243909
388	102.1043177963
387	102.0482704055
386	102.0128007766
385	101.8933723601
384	101.7732527355
383	101.6670555552
382	101.5674569712
381	101.4286279706
380	101.3188140181
379	101.2286006275
378	100.9703915172
377	100.827735447
376	100.9164303614
375	100.630451265
374	100.5973684688
373	100.5492277294
372	100.4265287909
371	100.2751165215
370	100.0898343709
369	99.93867124968
368	99.87809709733
367	99.75461052191
366	99.56565665348
365	99.28860580776
364	99.23207732527
363	98.97270829901
362	98.68640147348
361	98.43944791583
360	98.17171133701
359	97.83920420317
358	97.59126044382
357	97.24584019001
356	96.86648254487
355	96.54334699673
354	96.09900101627
353	95.50630712703
352	94.82925320723
351	94.22602131826
350	93.61819782094
349	92.84734395417
348	92.15831390376
347	91.25982449109
346	90.30921874586
345	89.36658523967
344	88.31644630804
343	87.0766760125
342	85.89282842196
341	84.55858927352
340	83.17860459289
339	81.71942761027
338	80.12250548881
337	78.34335431223
336	76.47803784436
335	74.51373900471
334	72.21457739214
333	69.66435030897
332	66.78872610924
331	63.67086838233
330	60.14354022809
329	56.3400928659
328	52.13720415242
327	47.69051238056
326	43.04756108188
325	38.43140992003
324	33.68794845469
323	28.71019143452
322	23.99182332301
321	19.69294616431
320	15.88878897092
319	12.72160680578
318	10.38182445858
317	8.801400109547
316	7.832872761521
315	7.341855456448
314	7.177784442233
313	7.231944982425
312	7.423673438286
311	7.65297861461
310	7.867322331778
309	8.069963965495
308	8.236509686836
307	8.368288156449
306	8.472757412507
305	8.540701564534
304	8.582605036358
303	8.608405705256
302	8.628992392287
301	8.622472161735
300	8.586004961838
299	8.526755605985
298	8.445888683929
297	8.352863429508
296	8.248305861498
295	8.113040646314
294	7.965798556641
293	7.814999234671
292	7.642282371227
291	7.471232863478
290	7.305560082387
289	7.138224109881
288	6.9849436663
287	6.84757053865
286	6.710747919283
285	6.573460403557
284	6.450728369192
283	6.339801418837
282	6.240344926271
281	6.150322406195
280	6.06598927014
279	5.990888483045
278	5.936749992044
277	5.891128027285
276	5.860371193152
275	5.828635494813
274	5.806957298422
273	5.795126802343
272	5.77769801366
271	5.765794843143
270	5.769798359484
269	5.769713521252
268	5.783980347354
267	5.797290414534
266	5.795641189354
265	5.809294518093
264	5.838320349674
263	5.872418239996
262	5.896117380771
261	5.923730039395
260	5.960050986322
259	5.991788134098
258	6.025567422007
257	6.063089189624
256	6.114775794619
255	6.15387538435
254	6.195471956303
253	6.228630227026
252	6.278693732656
251	6.327394450143
250	6.381832845924

