##TITLE=Vetro FLOAT standart di PP ds=3.1mm 27/giu/96
##JCAMP-DX= 4.24
##DATA TYPE= ULTRAVIOLET SPECTRUM
##SPECTROMETER/DATA SYSTEM= Perkin-Elmer Lambda Series / PECSS
##DATE= 96/06/27
##XUNITS= NANOMETERS
##YUNITS= TRANSMITTANCE
##MAXY= 0.0782
##MINY= 0.0650
##XFACTOR= 1.00
##YFACTOR= 0.0001
##FIRSTX= 350.0
##LASTX= 2500.0
##NPOINTS= 2151
##FIRSTY= 0.0703
##XYDATA= (X++(Y..Y))
350  703 709 715 719 724 728 734 737 740 743
360  746 749 752 755 756 757 759 761 761 763
370  762 763 763 762 761 761 760 759 759 755
380  755 755 757 758 761 762 764 765 767 769
390  770 770 772 773 774 775 775 775 775 777
400  777 777 778 778 777 775 776 776 776 776
410  775 776 775 776 775 775 775 775 775 776
420  775 776 775 775 775 776 775 776 775 775
430  775 775 776 776 775 774 774 776 775 775
440  776 776 776 776 775 775 776 776 776 776
450  776 775 775 776 776 775 775 776 777 775
460  775 775 777 776 777 778 778 778 778 778
470  779 779 778 779 779 779 780 779 780 781
480  781 781 781 781 781 780 781 780 780 780
490  780 780 779 780 779 779 779 780 780 779
500  779 779 780 780 780 779 780 780 780 779
510  780 780 780 780 779 781 781 781 781 781
520  781 781 781 781 781 781 781 782 781 781
530  782 783 783 782 781 782 782 781 782 783
540  781 782 782 782 782 782 781 783 783 782
550  783 782 782 781 782 783 781 782 782 781
560  781 781 780 780 780 780 780 780 780 780
570  780 780 779 779 779 779 779 779 778 778
580  778 778 779 778 777 777 778 777 777 777
590  777 777 776 777 776 776 776 775 776 776
600  776 775 775 775 774 774 775 774 774 774
610  774 774 773 773 773 773 772 773 773 773
620  771 771 771 771 771 771 770 770 770 769
630  769 769 769 769 769 769 768 768 768 767
640  767 767 767 767 767 767 766 766 765 766
650  766 766 764 764 764 764 764 764 764 764
660  763 763 763 762 763 762 762 761 761 761
670  761 761 761 760 760 760 760 759 759 760
680  758 757 758 757 757 757 757 757 757 756
690  754 756 756 755 754 755 754 754 755 754
700  754 753 754 752 753 753 752 751 752 751
710  751 751 751 751 751 751 750 750 750 749
720  750 749 748 748 749 748 748 747 747 747
730  746 746 747 746 746 746 745 745 744 744
740  744 743 745 744 744 743 743 743 743 742
750  743 741 741 742 741 741 740 741 740 740
760  739 739 740 739 739 739 739 738 737 738
770  738 738 737 737 736 737 736 737 736 735
780  736 734 735 734 734 734 733 735 733 734
790  734 733 735 733 733 733 733 732 733 732
800  730 731 731 731 731 731 730 730 731 730
810  730 730 729 730 729 728 729 728 727 728
820  728 727 728 727 725 725 726 725 726 726
830  725 724 725 727 724 724 726 724 726 724
840  723 723 724 724 724 724 725 725 725 726
850  722 721 721 720 724 725 719 720 725 726
860  725 716 725 718 733 733 734 728 738 736
870  730 737 739 736 722 737 733 728 737 754
880  738 730 727 736 717 740 734 735 731 736
890  722 730 741 737 739 744 733 732 729 732
900  729 732 737 731 724 745 738 717 725 727
910  730 727 733 737 725 741 725 740 737 732
920  712 727 733 719 723 739 729 721 724 725
930  730 728 731 727 722 726 715 728 731 726
940  716 719 722 728 723 722 732 720 731 716
950  721 726 712 720 723 720 720 720 711 720
960  717 729 719 725 722 725 731 729 715 723
970  717 734 730 728 718 728 716 725 727 723
980  722 726 720 714 717 716 737 718 729 719
990  723 718 712 727 716 727 728 716 717 726
1000  720 712 728 719 721 712 710 722 719 723
1010  724 728 718 722 715 719 733 719 713 719
1020  718 726 719 700 719 721 729 728 709 723
1030  704 732 725 708 706 702 718 713 730 720
1040  713 711 697 718 729 725 716 722 709 708
1050  717 715 720 722 721 708 710 721 713 716
1060  721 714 710 717 714 711 719 701 702 714
1070  715 727 721 712 707 705 723 719 713 712
1080  712 705 705 712 716 722 710 711 695 715
1090  709 716 705 705 702 713 715 708 704 717
1100  716 707 709 716 703 719 720 715 718 718
1110  710 717 714 711 716 719 718 705 714 706
1120  724 714 709 720 705 720 710 715 705 703
1130  703 710 701 703 716 707 724 705 717 717
1140  706 715 723 702 708 708 710 724 702 702
1150  712 713 710 720 711 710 700 707 708 712
1160  713 716 710 711 704 718 713 705 712 707
1170  705 707 706 708 708 708 704 706 718 711
1180  705 705 711 713 707 699 709 716 715 700
1190  693 707 697 705 695 714 715 710 705 706
1200  710 701 717 708 704 706 711 705 709 709
1210  711 708 706 710 714 703 714 701 710 704
1220  709 702 707 712 703 707 705 709 704 706
1230  709 711 704 701 711 704 713 708 697 707
1240  708 703 697 707 703 708 709 710 710 713
1250  709 700 715 710 710 713 712 707 703 712
1260  693 702 704 710 707 711 707 715 709 704
1270  713 709 715 699 710 712 704 714 716 698
1280  707 707 707 708 703 707 716 701 712 709
1290  713 708 706 708 695 703 702 710 702 710
1300  706 708 705 712 704 704 700 713 702 714
1310  714 705 709 703 711 709 705 709 709 707
1320  712 709 705 716 705 712 720 712 716 717
1330  707 718 707 705 710 714 708 712 712 714
1340  708 715 705 717 699 716 732 701 708 708
1350  703 708 705 706 693 706 715 731 697 710
1360  741 700 718 722 719 706 725 711 695 700
1370  706 703 721 709 708 718 724 708 717 701
1380  719 722 699 717 700 691 713 716 721 691
1390  726 701 717 701 732 705 705 698 715 732
1400  720 712 706 712 699 713 692 726 714 713
1410  699 691 722 719 706 706 703 720 716 712
1420  702 722 712 718 705 708 712 718 700 694
1430  719 695 720 719 707 727 713 723 696 719
1440  722 707 706 719 722 717 709 705 721 716
1450  712 714 720 708 715 717 715 726 714 706
1460  718 713 722 718 724 713 717 707 721 722
1470  721 713 705 707 720 729 710 715 713 729
1480  723 714 714 708 721 724 717 715 722 717
1490  727 726 718 720 722 708 720 723 713 707
1500  720 719 721 716 716 717 718 723 722 725
1510  719 725 729 724 719 717 720 716 719 718
1520  717 714 724 710 722 714 724 724 723 726
1530  721 736 718 721 726 716 717 715 723 721
1540  713 718 719 723 720 721 724 729 724 724
1550  711 720 722 718 715 715 717 727 724 724
1560  730 717 729 716 719 719 732 736 714 716
1570  718 725 721 719 720 725 714 721 725 720
1580  723 715 721 723 729 721 738 735 719 721
1590  716 726 719 716 724 722 723 728 720 729
1600  727 728 724 729 726 724 730 730 727 719
1610  717 724 738 732 715 717 736 715 724 719
1620  724 721 724 724 723 728 719 723 728 724
1630  725 725 722 719 723 716 720 714 727 719
1640  721 714 721 730 717 726 721 729 722 724
1650  719 714 723 724 726 711 732 717 725 718
1660  718 723 718 723 726 715 732 727 722 717
1670  716 725 720 710 724 723 723 721 720 725
1680  731 710 708 722 728 727 729 725 711 716
1690  721 719 721 731 726 724 724 718 722 720
1700  715 720 723 721 714 721 721 714 722 725
1710  720 722 721 717 728 730 718 724 718 726
1720  707 718 718 717 725 715 724 714 717 718
1730  712 711 719 715 719 718 722 716 722 740
1740  702 722 729 731 712 717 714 720 726 725
1750  716 719 710 714 723 708 709 719 727 715
1760  713 717 720 712 718 715 714 705 707 715
1770  710 709 715 710 719 726 717 712 712 716
1780  715 710 713 704 718 713 717 710 717 713
1790  713 710 714 720 724 716 703 698 717 728
1800  722 709 695 723 721 716 717 708 719 709
1810  719 707 701 712 718 723 702 723 703 732
1820  724 717 684 746 714 717 705 702 729 719
1830  712 709 713 733 690 739 693 738 672 727
1840  715 729 711 680 693 730 706 724 709 706
1850  703 739 705 690 735 707 688 722 714 706
1860  694 733 718 703 700 725 720 684 742 678
1870  727 713 732 682 740 718 703 696 722 705
1880  683 720 709 716 710 707 686 731 689 723
1890  707 713 708 699 708 695 701 727 705 701
1900  728 691 716 709 719 710 703 700 727 687
1910  709 724 682 722 709 711 688 703 734 715
1920  692 728 704 709 697 719 701 713 715 701
1930  703 722 701 722 703 690 706 700 712 700
1940  686 710 705 707 702 711 720 706 693 700
1950  709 703 707 705 708 700 715 699 701 707
1960  713 704 701 705 700 707 700 699 705 699
1970  699 706 708 709 701 704 691 706 695 690
1980  695 704 699 698 700 710 702 702 705 702
1990  713 697 699 695 704 702 697 707 712 702
2000  693 706 697 703 699 700 700 704 702 697
2010  701 694 698 699 708 713 704 702 697 697
2020  705 686 695 700 691 703 703 700 700 698
2030  697 696 703 720 699 701 690 700 703 700
2040  697 701 694 697 697 701 696 703 699 697
2050  701 700 688 699 693 699 690 697 707 699
2060  698 700 697 691 696 702 704 691 710 687
2070  695 690 688 693 698 707 702 690 696 699
2080  696 698 703 705 700 692 706 696 705 695
2090  693 687 695 689 698 693 704 695 697 695
2100  697 700 697 695 701 691 700 706 708 691
2110  695 694 708 689 700 697 701 693 693 693
2120  713 690 696 699 695 690 700 684 689 700
2130  701 692 698 697 696 701 689 695 692 693
2140  693 695 702 691 694 695 690 694 688 690
2150  688 701 698 690 693 687 690 694 692 687
2160  690 693 700 693 699 690 695 693 691 689
2170  682 689 689 689 684 679 688 685 693 678
2180  683 692 682 686 690 686 691 689 680 678
2190  675 680 685 679 682 669 685 684 687 673
2200  689 677 676 672 693 686 671 675 679 681
2210  674 674 671 671 669 682 684 671 680 679
2220  677 672 675 683 681 676 685 678 681 676
2230  678 693 678 681 677 692 674 680 686 673
2240  675 675 685 677 670 684 671 680 681 682
2250  682 684 679 675 680 669 686 686 681 683
2260  683 683 681 681 677 681 675 669 685 679
2270  683 689 684 682 676 679 692 677 679 684
2280  676 673 682 688 681 677 685 676 677 678
2290  684 682 669 683 689 686 682 683 682 684
2300  680 683 685 689 681 682 682 692 677 683
2310  686 679 685 685 688 677 680 680 680 684
2320  672 682 672 682 677 687 675 680 673 684
2330  687 682 690 676 688 677 679 681 677 683
2340  677 681 691 675 681 675 677 692 682 684
2350  671 677 685 682 686 675 676 686 681 679
2360  680 672 677 685 682 677 679 682 686 686
2370  677 675 681 675 674 690 688 671 683 675
2380  677 680 673 676 677 679 675 675 681 688
2390  678 673 682 680 680 673 672 679 674 672
2400  680 673 679 680 681 671 674 679 676 667
2410  692 665 673 661 675 682 676 684 675 664
2420  670 670 675 671 678 673 669 668 663 665
2430  650 681 691 680 676 664 667 670 668 669
2440  672 666 673 671 663 658 661 672 673 670
2450  670 664 666 660 672 667 653 656 674 666
2460  664 669 657 669 670 665 665 656 665 676
2470  670 664 661 664 671 658 663 660 654 654
2480  676 669 660 671 669 660 655 651 665 655
2490  655 675 662 662 653 655 655 656 651 662
2500  663
##END=
