##TITLE=Vetro FLOAT 3.1mm 26/giu/96
##JCAMP-DX= 4.24
##DATA TYPE= ULTRAVIOLET SPECTRUM
##SPECTROMETER/DATA SYSTEM= Perkin-Elmer Lambda Series / PECSS
##DATE= 96/06/27
##XUNITS= NANOMETERS
##YUNITS= TRANSMITTANCE
##MAXY= 0.9107
##MINY= 0.7998
##XFACTOR= 1.00
##YFACTOR= 0.0001
##FIRSTX= 350.0
##LASTX= 2500.0
##NPOINTS= 2151
##FIRSTY= 0.7998
##XYDATA= (X++(Y..Y))
350  7998 8081 8159 8232 8297 8360 8417 8471 8520 8563
360  8605 8642 8676 8705 8733 8760 8778 8794 8807 8817
370  8827 8828 8827 8818 8809 8797 8780 8768 8761 8768
380  8777 8787 8802 8824 8848 8870 8887 8914 8937 8952
390  8968 8984 8998 9014 9023 9031 9034 9045 9049 9052
400  9058 9063 9065 9066 9066 9063 9061 9064 9059 9060
410  9061 9055 9054 9052 9053 9050 9049 9049 9051 9050
420  9052 9049 9049 9046 9052 9051 9050 9054 9051 9053
430  9050 9048 9045 9048 9048 9047 9043 9045 9045 9043
440  9043 9043 9045 9046 9049 9050 9050 9056 9055 9059
450  9061 9066 9066 9066 9074 9077 9077 9077 9077 9079
460  9080 9085 9086 9087 9089 9091 9090 9093 9093 9091
470  9093 9093 9091 9093 9095 9094 9095 9098 9097 9100
480  9102 9099 9100 9100 9099 9101 9101 9100 9102 9101
490  9104 9102 9104 9104 9101 9103 9100 9101 9103 9102
500  9103 9103 9104 9101 9105 9106 9105 9107 9107 9105
510  9103 9107 9106 9106 9105 9106 9104 9104 9105 9106
520  9105 9104 9106 9103 9102 9102 9104 9100 9102 9099
530  9102 9097 9096 9097 9096 9097 9098 9093 9094 9096
540  9094 9093 9093 9092 9090 9090 9087 9089 9087 9087
550  9085 9084 9083 9082 9080 9080 9081 9079 9074 9073
560  9076 9074 9074 9068 9067 9064 9064 9061 9059 9058
570  9058 9054 9053 9053 9049 9050 9048 9045 9043 9041
580  9040 9039 9038 9036 9031 9029 9029 9025 9024 9022
590  9020 9016 9017 9016 9014 9012 9009 9008 9004 9005
600  9005 9000 8998 9000 8995 8994 8990 8987 8986 8984
610  8981 8979 8977 8975 8972 8971 8968 8967 8963 8960
620  8958 8957 8953 8955 8948 8946 8945 8941 8942 8937
630  8938 8932 8930 8928 8928 8926 8922 8918 8917 8915
640  8913 8912 8910 8904 8903 8902 8901 8898 8892 8894
650  8894 8888 8887 8883 8883 8880 8877 8873 8871 8872
660  8868 8867 8867 8861 8860 8859 8856 8854 8850 8850
670  8845 8846 8843 8841 8838 8836 8835 8831 8831 8826
680  8823 8821 8819 8814 8814 8812 8806 8806 8803 8798
690  8800 8795 8794 8792 8786 8786 8783 8778 8775 8778
700  8774 8769 8767 8765 8760 8760 8758 8754 8756 8750
710  8750 8745 8741 8741 8739 8736 8734 8729 8729 8726
720  8722 8719 8720 8716 8714 8711 8705 8703 8698 8694
730  8697 8695 8691 8688 8687 8681 8682 8679 8674 8671
740  8668 8664 8663 8662 8658 8656 8651 8652 8646 8643
750  8642 8640 8632 8634 8631 8629 8627 8621 8622 8616
760  8617 8611 8606 8607 8604 8601 8599 8594 8593 8589
770  8585 8580 8582 8574 8577 8576 8572 8569 8565 8562
780  8559 8555 8554 8552 8551 8550 8544 8546 8540 8540
790  8538 8531 8528 8527 8523 8525 8523 8520 8514 8514
800  8511 8510 8503 8500 8499 8497 8494 8490 8493 8491
810  8489 8486 8482 8481 8478 8478 8477 8477 8475 8469
820  8469 8473 8463 8460 8460 8461 8454 8451 8449 8447
830  8455 8440 8442 8441 8436 8436 8436 8432 8440 8432
840  8436 8441 8427 8432 8413 8418 8435 8424 8409 8414
850  8424 8407 8411 8403 8394 8409 8400 8428 8422 8401
860  8372 8379 8381 8379 8372 8373 8382 8373 8371 8368
870  8370 8373 8359 8371 8361 8371 8365 8359 8353 8361
880  8360 8346 8350 8355 8355 8347 8347 8348 8350 8341
890  8338 8341 8342 8333 8341 8336 8344 8334 8331 8333
900  8334 8324 8321 8329 8324 8330 8333 8319 8325 8316
910  8324 8310 8312 8311 8306 8322 8311 8313 8304 8307
920  8304 8308 8302 8300 8304 8311 8304 8303 8301 8302
930  8305 8299 8302 8294 8300 8292 8299 8299 8295 8304
940  8289 8295 8293 8294 8297 8291 8294 8285 8289 8289
950  8290 8293 8290 8287 8289 8286 8288 8278 8281 8285
960  8270 8280 8271 8279 8270 8277 8273 8284 8270 8279
970  8279 8276 8277 8277 8280 8277 8275 8266 8276 8268
980  8274 8263 8261 8267 8273 8270 8265 8279 8267 8263
990  8271 8281 8267 8259 8272 8271 8263 8254 8268 8269
1000  8267 8258 8266 8266 8270 8267 8265 8264 8260 8259
1010  8255 8264 8269 8262 8256 8262 8260 8258 8257 8252
1020  8257 8254 8252 8261 8262 8250 8253 8255 8251 8247
1030  8257 8254 8254 8253 8252 8260 8256 8253 8259 8251
1040  8253 8251 8250 8249 8257 8256 8256 8252 8253 8251
1050  8246 8255 8257 8242 8251 8262 8249 8252 8252 8248
1060  8254 8248 8248 8253 8245 8250 8253 8248 8252 8255
1070  8253 8255 8250 8248 8256 8251 8241 8246 8247 8252
1080  8243 8252 8249 8249 8246 8256 8254 8257 8254 8250
1090  8250 8249 8250 8249 8246 8254 8260 8251 8247 8251
1100  8255 8248 8250 8260 8247 8253 8253 8258 8257 8249
1110  8255 8256 8256 8251 8249 8252 8256 8261 8253 8249
1120  8260 8253 8253 8251 8256 8267 8251 8252 8255 8259
1130  8247 8254 8243 8251 8265 8251 8251 8256 8263 8253
1140  8257 8251 8258 8253 8255 8264 8252 8257 8251 8254
1150  8259 8260 8267 8254 8255 8256 8256 8260 8261 8261
1160  8260 8261 8261 8255 8268 8258 8261 8265 8257 8263
1170  8259 8261 8262 8263 8269 8256 8265 8256 8268 8259
1180  8269 8265 8269 8261 8262 8261 8268 8264 8272 8266
1190  8261 8265 8265 8270 8263 8272 8278 8267 8270 8275
1200  8277 8268 8273 8273 8263 8276 8281 8281 8274 8273
1210  8278 8271 8282 8277 8280 8282 8284 8284 8278 8287
1220  8279 8278 8281 8280 8277 8286 8289 8289 8288 8288
1230  8285 8285 8276 8286 8292 8294 8297 8296 8290 8294
1240  8292 8289 8295 8287 8302 8303 8304 8306 8298 8296
1250  8292 8292 8305 8306 8304 8310 8299 8304 8309 8307
1260  8310 8314 8316 8307 8308 8307 8310 8312 8326 8309
1270  8314 8316 8317 8323 8325 8331 8318 8315 8327 8325
1280  8320 8325 8320 8332 8330 8323 8337 8324 8334 8338
1290  8342 8340 8335 8338 8337 8344 8345 8343 8332 8346
1300  8348 8342 8339 8345 8351 8356 8355 8347 8348 8350
1310  8362 8357 8362 8359 8363 8362 8365 8370 8363 8369
1320  8362 8373 8365 8365 8364 8375 8376 8369 8376 8376
1330  8375 8379 8387 8379 8386 8380 8387 8387 8390 8385
1340  8395 8392 8386 8394 8401 8400 8391 8393 8403 8407
1350  8392 8385 8411 8384 8394 8399 8423 8446 8398 8400
1360  8424 8418 8436 8442 8421 8414 8451 8429 8407 8402
1370  8412 8430 8430 8429 8424 8417 8435 8437 8442 8422
1380  8459 8404 8420 8436 8430 8441 8420 8431 8445 8430
1390  8421 8441 8445 8417 8452 8444 8436 8472 8425 8438
1400  8444 8436 8429 8442 8443 8456 8451 8442 8457 8445
1410  8446 8445 8445 8466 8454 8467 8462 8467 8479 8466
1420  8465 8475 8472 8480 8478 8467 8484 8486 8486 8492
1430  8485 8488 8502 8486 8495 8505 8500 8503 8505 8508
1440  8508 8517 8508 8506 8523 8514 8520 8517 8528 8525
1450  8528 8516 8529 8536 8529 8536 8540 8532 8551 8544
1460  8528 8544 8552 8542 8560 8545 8547 8564 8549 8557
1470  8556 8553 8569 8560 8563 8573 8563 8583 8560 8571
1480  8585 8564 8580 8582 8566 8591 8575 8580 8597 8580
1490  8595 8601 8587 8603 8588 8593 8606 8594 8613 8595
1500  8593 8614 8593 8606 8609 8604 8617 8603 8618 8615
1510  8624 8627 8610 8626 8625 8617 8628 8615 8634 8631
1520  8633 8633 8625 8635 8627 8646 8638 8636 8643 8632
1530  8644 8649 8645 8648 8644 8639 8640 8647 8650 8650
1540  8658 8648 8657 8646 8658 8655 8661 8673 8658 8665
1550  8667 8665 8671 8670 8671 8668 8671 8670 8673 8675
1560  8678 8678 8678 8679 8684 8682 8684 8683 8683 8683
1570  8682 8682 8688 8690 8687 8691 8695 8702 8695 8696
1580  8680 8690 8701 8690 8700 8700 8702 8697 8702 8696
1590  8711 8699 8708 8700 8705 8704 8700 8702 8699 8713
1600  8703 8716 8709 8710 8706 8723 8714 8716 8715 8712
1610  8710 8715 8717 8716 8721 8713 8722 8710 8719 8718
1620  8724 8711 8731 8720 8735 8715 8728 8721 8730 8717
1630  8730 8727 8735 8727 8729 8730 8731 8725 8730 8725
1640  8728 8736 8732 8734 8723 8736 8733 8730 8733 8732
1650  8739 8738 8731 8733 8727 8734 8743 8738 8732 8743
1660  8734 8739 8736 8742 8737 8736 8734 8736 8747 8728
1670  8784 8745 8735 8736 8741 8732 8743 8729 8736 8734
1680  8748 8733 8738 8730 8736 8728 8738 8745 8746 8740
1690  8732 8739 8745 8736 8717 8693 8692 8693 8692 8702
1700  8698 8700 8694 8710 8706 8714 8708 8702 8721 8725
1710  8698 8696 8695 8707 8696 8716 8716 8701 8719 8701
1720  8703 8696 8702 8695 8698 8696 8707 8714 8718 8722
1730  8730 8736 8745 8738 8728 8740 8731 8730 8693 8723
1740  8707 8722 8718 8716 8725 8711 8710 8715 8715 8714
1750  8712 8718 8726 8725 8713 8714 8721 8729 8721 8727
1760  8721 8729 8724 8718 8720 8717 8720 8720 8724 8718
1770  8723 8705 8706 8720 8714 8704 8718 8714 8710 8718
1780  8704 8717 8701 8703 8698 8713 8710 8700 8715 8696
1790  8708 8691 8694 8694 8685 8716 8700 8693 8705 8716
1800  8711 8712 8709 8700 8705 8713 8707 8708 8707 8705
1810  8716 8705 8718 8684 8713 8714 8705 8706 8680 8710
1820  8709 8687 8692 8700 8707 8697 8695 8706 8705 8700
1830  8681 8704 8689 8701 8683 8672 8698 8694 8685 8682
1840  8691 8712 8698 8686 8675 8688 8691 8690 8693 8693
1850  8680 8698 8690 8682 8692 8682 8690 8675 8682 8691
1860  8674 8697 8687 8684 8689 8646 8699 8679 8671 8693
1870  8681 8690 8703 8662 8685 8687 8684 8690 8678 8685
1880  8688 8673 8690 8668 8677 8686 8670 8684 8673 8686
1890  8686 8670 8686 8678 8668 8684 8666 8653 8681 8674
1900  8677 8664 8669 8682 8640 8673 8669 8661 8674 8660
1910  8667 8664 8659 8677 8662 8665 8669 8655 8646 8677
1920  8656 8668 8670 8643 8652 8670 8651 8666 8657 8659
1930  8671 8652 8659 8674 8658 8660 8662 8667 8681 8662
1940  8663 8671 8654 8677 8665 8651 8667 8674 8665 8665
1950  8660 8665 8671 8657 8660 8674 8664 8672 8659 8664
1960  8669 8662 8662 8663 8668 8668 8666 8656 8667 8672
1970  8658 8664 8672 8663 8661 8665 8654 8659 8649 8650
1980  8658 8656 8655 8636 8657 8661 8647 8641 8652 8650
1990  8661 8667 8663 8652 8652 8659 8670 8660 8664 8656
2000  8659 8657 8661 8666 8651 8655 8659 8671 8664 8654
2010  8649 8664 8659 8660 8668 8648 8666 8664 8652 8659
2020  8660 8650 8650 8646 8646 8660 8656 8646 8645 8657
2030  8650 8658 8655 8645 8659 8666 8649 8653 8668 8646
2040  8655 8669 8654 8663 8674 8658 8665 8673 8662 8654
2050  8658 8651 8661 8662 8660 8655 8666 8656 8659 8674
2060  8666 8654 8663 8665 8660 8670 8655 8647 8668 8668
2070  8651 8664 8668 8653 8658 8673 8650 8656 8666 8646
2080  8661 8673 8671 8645 8666 8656 8645 8668 8674 8661
2090  8661 8665 8649 8664 8673 8658 8644 8658 8661 8646
2100  8673 8659 8639 8660 8658 8642 8659 8668 8641 8643
2110  8661 8650 8640 8661 8657 8638 8648 8652 8644 8644
2120  8662 8642 8636 8655 8646 8639 8653 8645 8629 8652
2130  8658 8633 8634 8651 8641 8625 8639 8639 8631 8639
2140  8643 8625 8626 8638 8622 8618 8626 8627 8610 8617
2150  8630 8610 8608 8623 8620 8600 8613 8625 8605 8597
2160  8615 8600 8584 8608 8596 8581 8588 8593 8583 8573
2170  8587 8582 8558 8563 8563 8558 8553 8551 8551 8531
2180  8541 8534 8516 8516 8520 8506 8488 8501 8498 8482
2190  8482 8481 8474 8457 8462 8472 8451 8451 8461 8446
2200  8439 8445 8450 8436 8435 8445 8439 8419 8425 8430
2210  8429 8418 8435 8423 8410 8419 8433 8431 8411 8426
2220  8425 8417 8420 8435 8421 8419 8420 8429 8421 8424
2230  8434 8425 8420 8428 8437 8432 8429 8436 8441 8437
2240  8439 8443 8442 8441 8454 8447 8451 8451 8448 8451
2250  8451 8450 8460 8461 8464 8462 8461 8457 8465 8464
2260  8473 8464 8462 8461 8470 8471 8482 8477 8476 8474
2270  8478 8483 8481 8480 8482 8485 8484 8480 8485 8490
2280  8492 8494 8488 8491 8495 8497 8494 8495 8496 8502
2290  8504 8497 8503 8505 8507 8506 8501 8508 8507 8504
2300  8506 8505 8508 8516 8514 8508 8515 8504 8515 8521
2310  8516 8508 8513 8511 8518 8515 8518 8514 8515 8518
2320  8518 8514 8507 8520 8514 8515 8519 8516 8517 8515
2330  8528 8528 8517 8521 8519 8532 8519 8519 8517 8526
2340  8521 8522 8523 8522 8523 8523 8516 8526 8528 8520
2350  8519 8522 8522 8518 8518 8528 8517 8523 8520 8518
2360  8525 8517 8509 8523 8519 8510 8520 8514 8514 8512
2370  8519 8520 8506 8507 8511 8512 8517 8512 8514 8510
2380  8505 8502 8509 8513 8509 8508 8507 8498 8505 8501
2390  8494 8503 8495 8499 8495 8489 8491 8486 8481 8483
2400  8493 8483 8485 8488 8486 8482 8481 8471 8473 8481
2410  8474 8474 8465 8463 8461 8461 8469 8460 8459 8455
2420  8442 8444 8448 8451 8452 8444 8442 8445 8433 8432
2430  8431 8431 8433 8432 8427 8429 8417 8412 8414 8415
2440  8406 8395 8403 8396 8395 8391 8398 8396 8391 8385
2450  8386 8388 8378 8376 8366 8378 8378 8373 8363 8372
2460  8369 8363 8354 8354 8358 8356 8358 8349 8349 8350
2470  8351 8335 8334 8341 8339 8336 8328 8332 8331 8330
2480  8325 8327 8326 8324 8329 8317 8312 8312 8319 8313
2490  8304 8321 8314 8306 8312 8306 8303 8300 8295 8299
2500  8296
##END=
