PE UV       SUBTECH     SPECTRUM    ASCII       PEDS        4.00        
   -1
Sample800.Sample.asc
12/03/27
12:17:38.00
12/03/27
12:17:38.00
Analyst
solarlux su Pilkington Microwhite by Reflex 27/mar/2012
250.000000
1
Lambda 950
950N6032301
PerkinElmer UV WinLab 5.1.5.0637 / 1.61.00 Lambda 900

0
0
3350/servo 860.8/2
0
0
UV/VIS
1
1
1
RBeamAtt,SBeamAtt,150mm sphere / downward view
0
0
0
0
Program
Program
3350/servo 860.8/2
3350/1 860.8/1
3350/1 860.8/1
0
1
 
 
 
0
 
860.8
319.2
860.8
Front
100
 
S:100 R:100
 
0
0
0
 
0
 
 
 
0
 
 
0
0
0
0
0
 
 
 
 
0
0
#HDR
-1
-1
#GR
nm
%T
1.0
0.0
2500.000000
-1.000000
2251
8
127.228795
5.750257
#DATA
2500.000000	97.051374
2499.000000	97.640683
2498.000000	97.444972
2497.000000	97.741866
2496.000000	97.764021
2495.000000	97.229045
2494.000000	97.354847
2493.000000	97.425013
2492.000000	96.483412
2491.000000	97.197216
2490.000000	97.200408
2489.000000	96.866525
2488.000000	97.894174
2487.000000	97.697267
2486.000000	97.355497
2485.000000	96.536768
2484.000000	97.455457
2483.000000	96.979256
2482.000000	97.362295
2481.000000	96.527563
2480.000000	97.541053
2479.000000	97.246651
2478.000000	97.757009
2477.000000	97.479889
2476.000000	97.531492
2475.000000	97.572594
2474.000000	96.730424
2473.000000	96.955171
2472.000000	97.352622
2471.000000	97.452256
2470.000000	97.626580
2469.000000	97.771278
2468.000000	97.837162
2467.000000	97.069789
2466.000000	97.531558
2465.000000	96.940915
2464.000000	97.482834
2463.000000	97.081574
2462.000000	98.648158
2461.000000	97.221212
2460.000000	97.486057
2459.000000	98.307912
2458.000000	98.003432
2457.000000	97.337484
2456.000000	97.485830
2455.000000	97.348922
2454.000000	96.602158
2453.000000	97.152687
2452.000000	97.931650
2451.000000	98.300312
2450.000000	97.975223
2449.000000	97.166347
2448.000000	97.905287
2447.000000	98.023715
2446.000000	97.876413
2445.000000	98.150032
2444.000000	97.735686
2443.000000	98.737243
2442.000000	98.321589
2441.000000	97.601913
2440.000000	98.346474
2439.000000	98.218628
2438.000000	97.859737
2437.000000	97.845967
2436.000000	98.037133
2435.000000	97.758323
2434.000000	97.970555
2433.000000	98.034059
2432.000000	98.240117
2431.000000	98.229996
2430.000000	98.020352
2429.000000	98.109922
2428.000000	97.827916
2427.000000	98.186706
2426.000000	98.357915
2425.000000	98.323065
2424.000000	98.345286
2423.000000	98.056628
2422.000000	98.248079
2421.000000	98.328773
2420.000000	98.264721
2419.000000	98.265983
2418.000000	98.235925
2417.000000	98.222520
2416.000000	97.824416
2415.000000	98.214785
2414.000000	98.149200
2413.000000	97.746966
2412.000000	97.936306
2411.000000	98.624138
2410.000000	98.577387
2409.000000	98.036937
2408.000000	98.070843
2407.000000	97.413196
2406.000000	98.110170
2405.000000	98.677481
2404.000000	98.833138
2403.000000	98.339795
2402.000000	98.542227
2401.000000	98.769765
2400.000000	98.201857
2399.000000	98.540308
2398.000000	98.730048
2397.000000	98.321916
2396.000000	98.116844
2395.000000	98.443156
2394.000000	98.140050
2393.000000	98.177249
2392.000000	98.145149
2391.000000	97.675924
2390.000000	97.879576
2389.000000	98.557396
2388.000000	98.673571
2387.000000	98.021498
2386.000000	98.060704
2385.000000	97.936343
2384.000000	98.047034
2383.000000	98.294822
2382.000000	98.450256
2381.000000	98.617525
2380.000000	98.673542
2379.000000	98.398883
2378.000000	98.323445
2377.000000	98.451743
2376.000000	98.582293
2375.000000	98.698511
2374.000000	98.562345
2373.000000	98.478113
2372.000000	98.060582
2371.000000	98.231951
2370.000000	98.738886
2369.000000	98.846000
2368.000000	98.441978
2367.000000	98.316135
2366.000000	98.713157
2365.000000	98.589968
2364.000000	98.672767
2363.000000	98.946119
2362.000000	98.748183
2361.000000	98.432559
2360.000000	98.238712
2359.000000	98.237057
2358.000000	98.638881
2357.000000	98.986976
2356.000000	99.058506
2355.000000	98.692190
2354.000000	98.680423
2353.000000	99.076932
2352.000000	98.941366
2351.000000	98.643302
2350.000000	98.761046
2349.000000	98.781488
2348.000000	98.480942
2347.000000	98.713687
2346.000000	98.733324
2345.000000	99.046979
2344.000000	98.858885
2343.000000	98.522957
2342.000000	98.803487
2341.000000	99.039821
2340.000000	98.918455
2339.000000	98.642490
2338.000000	98.426608
2337.000000	98.790116
2336.000000	98.428448
2335.000000	98.510083
2334.000000	98.793225
2333.000000	98.479027
2332.000000	98.267424
2331.000000	98.439307
2330.000000	98.528060
2329.000000	98.535299
2328.000000	98.520694
2327.000000	98.504939
2326.000000	98.798583
2325.000000	98.932883
2324.000000	98.682447
2323.000000	98.479460
2322.000000	98.607411
2321.000000	98.538280
2320.000000	98.484567
2319.000000	98.887276
2318.000000	98.674547
2317.000000	98.340132
2316.000000	98.944185
2315.000000	98.943512
2314.000000	98.777180
2313.000000	98.782162
2312.000000	98.682957
2311.000000	98.973536
2310.000000	98.489933
2309.000000	98.444546
2308.000000	98.700617
2307.000000	98.608422
2306.000000	98.373431
2305.000000	98.474914
2304.000000	98.564510
2303.000000	98.673624
2302.000000	98.718237
2301.000000	98.740621
2300.000000	98.569013
2299.000000	98.827784
2298.000000	99.047904
2297.000000	98.724491
2296.000000	98.862207
2295.000000	98.524034
2294.000000	98.295601
2293.000000	98.638066
2292.000000	98.860876
2291.000000	98.543751
2290.000000	98.654504
2289.000000	98.654191
2288.000000	98.335766
2287.000000	98.715443
2286.000000	98.522941
2285.000000	98.284259
2284.000000	98.811600
2283.000000	98.648437
2282.000000	98.712272
2281.000000	98.578865
2280.000000	98.561649
2279.000000	98.296520
2278.000000	98.698731
2277.000000	98.798959
2276.000000	98.483923
2275.000000	98.481778
2274.000000	98.705252
2273.000000	98.659855
2272.000000	98.558780
2271.000000	98.641595
2270.000000	98.693225
2269.000000	98.369891
2268.000000	98.294946
2267.000000	98.473857
2266.000000	98.536085
2265.000000	98.756643
2264.000000	98.563731
2263.000000	98.547171
2262.000000	98.571633
2261.000000	98.350221
2260.000000	98.236198
2259.000000	98.195937
2258.000000	98.408937
2257.000000	98.515317
2256.000000	98.603855
2255.000000	98.666424
2254.000000	98.574475
2253.000000	98.711829
2252.000000	98.535788
2251.000000	98.295942
2250.000000	98.160496
2249.000000	98.371896
2248.000000	98.490698
2247.000000	98.429255
2246.000000	98.142824
2245.000000	98.425340
2244.000000	98.433161
2243.000000	98.240326
2242.000000	98.643808
2241.000000	98.405022
2240.000000	98.416245
2239.000000	98.055202
2238.000000	98.273913
2237.000000	98.158601
2236.000000	98.317016
2235.000000	98.376815
2234.000000	98.435066
2233.000000	98.534201
2232.000000	98.299859
2231.000000	98.410754
2230.000000	98.454215
2229.000000	98.309412
2228.000000	98.310400
2227.000000	98.239156
2226.000000	98.541701
2225.000000	98.327038
2224.000000	98.336518
2223.000000	98.411462
2222.000000	98.600033
2221.000000	98.378505
2220.000000	98.499524
2219.000000	98.229249
2218.000000	98.434154
2217.000000	98.423524
2216.000000	98.457397
2215.000000	98.586643
2214.000000	98.482851
2213.000000	98.221657
2212.000000	98.585776
2211.000000	98.481853
2210.000000	98.657477
2209.000000	98.545674
2208.000000	98.509722
2207.000000	98.512520
2206.000000	98.600570
2205.000000	98.446859
2204.000000	98.537870
2203.000000	98.314744
2202.000000	98.605741
2201.000000	98.508064
2200.000000	98.573306
2199.000000	98.438423
2198.000000	98.864310
2197.000000	98.880328
2196.000000	98.599782
2195.000000	98.793657
2194.000000	99.003049
2193.000000	99.069859
2192.000000	98.868926
2191.000000	98.873216
2190.000000	98.915818
2189.000000	98.944402
2188.000000	98.968470
2187.000000	98.993158
2186.000000	99.005126
2185.000000	98.961168
2184.000000	99.354430
2183.000000	99.239366
2182.000000	99.074344
2181.000000	99.353001
2180.000000	99.431893
2179.000000	99.192705
2178.000000	99.050089
2177.000000	99.137873
2176.000000	99.258139
2175.000000	99.397319
2174.000000	99.444842
2173.000000	99.505535
2172.000000	99.407319
2171.000000	99.464617
2170.000000	99.604622
2169.000000	99.687498
2168.000000	99.459632
2167.000000	99.468907
2166.000000	99.599659
2165.000000	99.317203
2164.000000	99.579461
2163.000000	99.359197
2162.000000	99.517263
2161.000000	99.576210
2160.000000	99.740448
2159.000000	99.762617
2158.000000	99.668121
2157.000000	99.818790
2156.000000	99.494021
2155.000000	99.557888
2154.000000	99.831090
2153.000000	99.713071
2152.000000	99.709209
2151.000000	99.796207
2150.000000	99.782885
2149.000000	99.827800
2148.000000	99.753217
2147.000000	99.952202
2146.000000	100.145520
2145.000000	99.826582
2144.000000	99.764682
2143.000000	99.719875
2142.000000	99.900553
2141.000000	99.895846
2140.000000	99.741529
2139.000000	99.730760
2138.000000	99.699751
2137.000000	99.871790
2136.000000	99.909007
2135.000000	99.851593
2134.000000	99.981446
2133.000000	99.860616
2132.000000	99.816874
2131.000000	99.907582
2130.000000	99.923116
2129.000000	100.048531
2128.000000	99.941679
2127.000000	99.862243
2126.000000	99.953132
2125.000000	99.966095
2124.000000	99.899843
2123.000000	99.898675
2122.000000	100.008254
2121.000000	99.988282
2120.000000	99.883602
2119.000000	99.898897
2118.000000	99.977221
2117.000000	99.984351
2116.000000	99.971148
2115.000000	99.986464
2114.000000	100.051370
2113.000000	100.049278
2112.000000	99.988433
2111.000000	100.108959
2110.000000	100.173008
2109.000000	100.060903
2108.000000	100.079710
2107.000000	100.083192
2106.000000	100.016541
2105.000000	100.092728
2104.000000	100.149613
2103.000000	100.045646
2102.000000	100.076252
2101.000000	100.119240
2100.000000	100.083804
2099.000000	100.043400
2098.000000	100.068210
2097.000000	100.157899
2096.000000	100.204141
2095.000000	100.195641
2094.000000	100.068597
2093.000000	100.153217
2092.000000	100.151843
2091.000000	100.124119
2090.000000	100.074943
2089.000000	100.051702
2088.000000	100.067615
2087.000000	100.099743
2086.000000	100.243162
2085.000000	100.342975
2084.000000	100.181867
2083.000000	100.086369
2082.000000	100.118512
2081.000000	100.169029
2080.000000	100.140266
2079.000000	100.152139
2078.000000	100.124081
2077.000000	100.131795
2076.000000	100.176065
2075.000000	100.226101
2074.000000	100.224016
2073.000000	100.344072
2072.000000	100.305722
2071.000000	100.246895
2070.000000	100.162453
2069.000000	100.080687
2068.000000	100.134233
2067.000000	100.217676
2066.000000	100.287871
2065.000000	100.207229
2064.000000	100.155066
2063.000000	100.131398
2062.000000	100.260334
2061.000000	100.333309
2060.000000	100.331735
2059.000000	100.151993
2058.000000	100.192691
2057.000000	100.286635
2056.000000	100.325100
2055.000000	100.428901
2054.000000	100.270533
2053.000000	100.219429
2052.000000	100.177724
2051.000000	100.148264
2050.000000	100.178157
2049.000000	100.208434
2048.000000	100.187843
2047.000000	100.276127
2046.000000	100.245772
2045.000000	100.255985
2044.000000	100.262731
2043.000000	100.222243
2042.000000	100.336788
2041.000000	100.426961
2040.000000	100.293198
2039.000000	100.241692
2038.000000	100.301863
2037.000000	100.252593
2036.000000	100.173417
2035.000000	100.313265
2034.000000	100.319376
2033.000000	100.274242
2032.000000	100.353591
2031.000000	100.413087
2030.000000	100.319205
2029.000000	100.282872
2028.000000	100.233371
2027.000000	100.236754
2026.000000	100.281606
2025.000000	100.365925
2024.000000	100.309749
2023.000000	100.274268
2022.000000	100.346453
2021.000000	100.303721
2020.000000	100.256304
2019.000000	100.245566
2018.000000	100.321831
2017.000000	100.334026
2016.000000	100.383549
2015.000000	100.361642
2014.000000	100.334376
2013.000000	100.365816
2012.000000	100.335941
2011.000000	100.378712
2010.000000	100.277194
2009.000000	100.316183
2008.000000	100.348239
2007.000000	100.410150
2006.000000	100.377741
2005.000000	100.419557
2004.000000	100.286335
2003.000000	100.406853
2002.000000	100.394509
2001.000000	100.406908
2000.000000	100.394621
1999.000000	100.423188
1998.000000	100.409663
1997.000000	100.478860
1996.000000	100.465890
1995.000000	100.383900
1994.000000	100.475408
1993.000000	100.497234
1992.000000	100.457528
1991.000000	100.399411
1990.000000	100.376234
1989.000000	100.474539
1988.000000	100.478726
1987.000000	100.382335
1986.000000	100.499814
1985.000000	100.497060
1984.000000	100.553663
1983.000000	100.480837
1982.000000	100.494659
1981.000000	100.472263
1980.000000	100.461421
1979.000000	100.416118
1978.000000	100.507782
1977.000000	100.519189
1976.000000	100.545559
1975.000000	100.382197
1974.000000	100.505981
1973.000000	100.429682
1972.000000	100.473372
1971.000000	100.500078
1970.000000	100.616949
1969.000000	100.494010
1968.000000	100.596046
1967.000000	100.521206
1966.000000	100.562835
1965.000000	100.497271
1964.000000	100.567094
1963.000000	100.494304
1962.000000	100.533238
1961.000000	100.527700
1960.000000	100.584107
1959.000000	100.457983
1958.000000	100.597781
1957.000000	100.602652
1956.000000	100.641396
1955.000000	100.628865
1954.000000	100.626274
1953.000000	100.629953
1952.000000	100.624745
1951.000000	100.669209
1950.000000	100.594307
1949.000000	100.584771
1948.000000	100.538113
1947.000000	100.553469
1946.000000	100.626684
1945.000000	100.574003
1944.000000	100.586208
1943.000000	100.584963
1942.000000	100.624004
1941.000000	100.645017
1940.000000	100.724219
1939.000000	100.733165
1938.000000	100.682428
1937.000000	100.667180
1936.000000	100.540980
1935.000000	100.602757
1934.000000	100.643487
1933.000000	100.554801
1932.000000	100.696623
1931.000000	100.731131
1930.000000	100.685640
1929.000000	100.676728
1928.000000	100.721846
1927.000000	100.662892
1926.000000	100.606154
1925.000000	100.670331
1924.000000	100.718744
1923.000000	100.701978
1922.000000	100.777749
1921.000000	100.712581
1920.000000	100.677731
1919.000000	100.754335
1918.000000	100.695678
1917.000000	100.656403
1916.000000	100.696322
1915.000000	100.728108
1914.000000	100.752263
1913.000000	100.743786
1912.000000	100.671855
1911.000000	100.732166
1910.000000	100.884773
1909.000000	100.786212
1908.000000	100.778066
1907.000000	100.790569
1906.000000	100.694707
1905.000000	100.780848
1904.000000	100.806614
1903.000000	100.823035
1902.000000	100.843849
1901.000000	100.812353
1900.000000	100.778399
1899.000000	100.779436
1898.000000	100.822117
1897.000000	100.814681
1896.000000	100.841653
1895.000000	100.847399
1894.000000	100.866598
1893.000000	100.904785
1892.000000	100.883447
1891.000000	100.824121
1890.000000	100.842568
1889.000000	100.860466
1888.000000	100.850158
1887.000000	100.838825
1886.000000	100.833038
1885.000000	100.880794
1884.000000	100.854325
1883.000000	100.888322
1882.000000	100.934846
1881.000000	100.918246
1880.000000	100.863420
1879.000000	100.806529
1878.000000	100.893190
1877.000000	100.916946
1876.000000	100.881276
1875.000000	100.933311
1874.000000	100.962002
1873.000000	100.915937
1872.000000	100.878478
1871.000000	100.875576
1870.000000	100.882589
1869.000000	100.884999
1868.000000	100.925204
1867.000000	100.931998
1866.000000	100.949434
1865.000000	100.946850
1864.000000	100.884211
1863.000000	100.904629
1862.000000	100.919144
1861.000000	100.917185
1860.000000	100.969118
1859.000000	100.952725
1858.000000	100.915738
1857.000000	100.928833
1856.000000	100.968155
1855.000000	100.989740
1854.000000	100.997604
1853.000000	100.946881
1852.000000	100.890234
1851.000000	100.790529
1850.000000	100.741223
1849.000000	100.811902
1848.000000	100.904171
1847.000000	101.017093
1846.000000	101.014956
1845.000000	100.938989
1844.000000	100.961369
1843.000000	100.982866
1842.000000	100.989841
1841.000000	101.011077
1840.000000	100.997422
1839.000000	101.022122
1838.000000	101.056677
1837.000000	101.052549
1836.000000	101.073426
1835.000000	101.028351
1834.000000	101.007318
1833.000000	101.033891
1832.000000	101.059165
1831.000000	101.087956
1830.000000	101.105454
1829.000000	101.083124
1828.000000	101.063253
1827.000000	101.097627
1826.000000	101.127945
1825.000000	101.109855
1824.000000	101.033244
1823.000000	101.043748
1822.000000	101.083136
1821.000000	101.119731
1820.000000	101.104756
1819.000000	101.082592
1818.000000	101.114097
1817.000000	101.100646
1816.000000	101.094328
1815.000000	101.155387
1814.000000	101.163847
1813.000000	101.129115
1812.000000	101.085606
1811.000000	101.095144
1810.000000	101.140472
1809.000000	101.136531
1808.000000	101.128218
1807.000000	101.148938
1806.000000	101.191527
1805.000000	101.186868
1804.000000	101.161700
1803.000000	101.166681
1802.000000	101.192108
1801.000000	101.175013
1800.000000	101.161656
1799.000000	101.205639
1798.000000	101.198469
1797.000000	101.206703
1796.000000	101.206104
1795.000000	101.195944
1794.000000	101.206368
1793.000000	101.222396
1792.000000	101.229476
1791.000000	101.263992
1790.000000	101.253985
1789.000000	101.287603
1788.000000	101.235068
1787.000000	101.224196
1786.000000	101.252174
1785.000000	101.246063
1784.000000	101.252650
1783.000000	101.277510
1782.000000	101.278628
1781.000000	101.322615
1780.000000	101.325376
1779.000000	101.298406
1778.000000	101.291298
1777.000000	101.331018
1776.000000	101.307066
1775.000000	101.300068
1774.000000	101.289537
1773.000000	101.327888
1772.000000	101.306451
1771.000000	101.311242
1770.000000	101.336878
1769.000000	101.307632
1768.000000	101.328108
1767.000000	101.333520
1766.000000	101.348322
1765.000000	101.317425
1764.000000	101.325572
1763.000000	101.345824
1762.000000	101.379023
1761.000000	101.356238
1760.000000	101.371215
1759.000000	101.390420
1758.000000	101.314198
1757.000000	101.356070
1756.000000	101.399110
1755.000000	101.413338
1754.000000	101.430545
1753.000000	101.451581
1752.000000	101.386401
1751.000000	101.394557
1750.000000	101.384720
1749.000000	101.412708
1748.000000	101.434556
1747.000000	101.417623
1746.000000	101.453155
1745.000000	101.452233
1744.000000	101.445080
1743.000000	101.461526
1742.000000	101.460500
1741.000000	101.464497
1740.000000	101.465107
1739.000000	101.495644
1738.000000	101.463216
1737.000000	101.459555
1736.000000	101.450732
1735.000000	101.513860
1734.000000	101.450102
1733.000000	101.464864
1732.000000	101.480735
1731.000000	101.530684
1730.000000	101.470825
1729.000000	101.523355
1728.000000	101.506112
1727.000000	101.502707
1726.000000	101.513784
1725.000000	101.513767
1724.000000	101.504997
1723.000000	101.569533
1722.000000	101.561559
1721.000000	101.601905
1720.000000	101.492308
1719.000000	101.587208
1718.000000	101.580967
1717.000000	101.577605
1716.000000	101.576708
1715.000000	101.578611
1714.000000	101.587114
1713.000000	101.594642
1712.000000	101.636412
1711.000000	101.594506
1710.000000	101.602991
1709.000000	101.642775
1708.000000	101.604492
1707.000000	101.610773
1706.000000	101.627596
1705.000000	101.686102
1704.000000	101.634567
1703.000000	101.627880
1702.000000	101.648921
1701.000000	101.634062
1700.000000	101.631751
1699.000000	101.654252
1698.000000	101.641646
1697.000000	101.671624
1696.000000	101.649532
1695.000000	101.656303
1694.000000	101.675619
1693.000000	101.700940
1692.000000	101.703075
1691.000000	101.697611
1690.000000	101.702508
1689.000000	101.730556
1688.000000	101.729325
1687.000000	101.688229
1686.000000	101.726255
1685.000000	101.719688
1684.000000	101.718096
1683.000000	101.721163
1682.000000	101.748171
1681.000000	101.736534
1680.000000	101.776210
1679.000000	101.802657
1678.000000	101.731484
1677.000000	101.741782
1676.000000	101.709974
1675.000000	101.740423
1674.000000	101.751546
1673.000000	101.761578
1672.000000	101.782616
1671.000000	101.768045
1670.000000	101.735980
1669.000000	101.764940
1668.000000	101.680371
1667.000000	101.631031
1666.000000	101.645260
1665.000000	101.641023
1664.000000	101.649995
1663.000000	101.661996
1662.000000	101.826138
1661.000000	101.840402
1660.000000	101.877018
1659.000000	101.850373
1658.000000	101.826947
1657.000000	101.811063
1656.000000	101.820536
1655.000000	101.843932
1654.000000	101.858928
1653.000000	101.861891
1652.000000	101.839189
1651.000000	101.813033
1650.000000	101.837334
1649.000000	101.874798
1648.000000	101.881899
1647.000000	101.874668
1646.000000	101.896499
1645.000000	101.904121
1644.000000	101.893084
1643.000000	101.887315
1642.000000	101.876457
1641.000000	101.906135
1640.000000	101.912709
1639.000000	101.938378
1638.000000	101.907688
1637.000000	101.919934
1636.000000	101.907286
1635.000000	101.900924
1634.000000	101.893155
1633.000000	101.886091
1632.000000	101.915764
1631.000000	101.918386
1630.000000	101.919567
1629.000000	101.924832
1628.000000	101.937797
1627.000000	101.952220
1626.000000	101.963098
1625.000000	101.955797
1624.000000	101.948612
1623.000000	101.961298
1622.000000	101.958190
1621.000000	101.963482
1620.000000	101.987030
1619.000000	101.973263
1618.000000	101.962767
1617.000000	101.987291
1616.000000	101.974977
1615.000000	101.979811
1614.000000	101.977222
1613.000000	101.992380
1612.000000	102.015673
1611.000000	102.014753
1610.000000	102.014175
1609.000000	102.032547
1608.000000	102.028942
1607.000000	102.039441
1606.000000	102.034477
1605.000000	102.036769
1604.000000	102.050991
1603.000000	102.032995
1602.000000	102.028554
1601.000000	102.034431
1600.000000	102.043266
1599.000000	102.039780
1598.000000	102.040122
1597.000000	102.057717
1596.000000	102.065445
1595.000000	102.056052
1594.000000	102.065315
1593.000000	102.074478
1592.000000	102.077506
1591.000000	102.058257
1590.000000	102.058115
1589.000000	102.065722
1588.000000	102.089618
1587.000000	102.112095
1586.000000	102.105813
1585.000000	102.119385
1584.000000	102.119315
1583.000000	102.098999
1582.000000	102.109684
1581.000000	102.128601
1580.000000	102.119175
1579.000000	102.119088
1578.000000	102.124872
1577.000000	102.142430
1576.000000	102.131402
1575.000000	102.107245
1574.000000	102.118308
1573.000000	102.131169
1572.000000	102.145334
1571.000000	102.155752
1570.000000	102.149487
1569.000000	102.139437
1568.000000	102.152643
1567.000000	102.161631
1566.000000	102.177615
1565.000000	102.167872
1564.000000	102.186256
1563.000000	102.193055
1562.000000	102.181765
1561.000000	102.190985
1560.000000	102.185067
1559.000000	102.180992
1558.000000	102.186211
1557.000000	102.174331
1556.000000	102.212303
1555.000000	102.208016
1554.000000	102.212226
1553.000000	102.211315
1552.000000	102.212829
1551.000000	102.195907
1550.000000	102.188496
1549.000000	102.190624
1548.000000	102.202454
1547.000000	102.202646
1546.000000	102.226570
1545.000000	102.246344
1544.000000	102.245920
1543.000000	102.223286
1542.000000	102.236750
1541.000000	102.231986
1540.000000	102.230593
1539.000000	102.236159
1538.000000	102.243026
1537.000000	102.260489
1536.000000	102.266383
1535.000000	102.260040
1534.000000	102.265463
1533.000000	102.267784
1532.000000	102.282373
1531.000000	102.287140
1530.000000	102.288251
1529.000000	102.298370
1528.000000	102.287941
1527.000000	102.279966
1526.000000	102.282707
1525.000000	102.311001
1524.000000	102.300232
1523.000000	102.295459
1522.000000	102.315232
1521.000000	102.297520
1520.000000	102.302009
1519.000000	102.308852
1518.000000	102.324337
1517.000000	102.331315
1516.000000	102.346707
1515.000000	102.325733
1514.000000	102.325010
1513.000000	102.322756
1512.000000	102.314380
1511.000000	102.326260
1510.000000	102.315573
1509.000000	102.356479
1508.000000	102.363284
1507.000000	102.326134
1506.000000	102.366343
1505.000000	102.346230
1504.000000	102.361436
1503.000000	102.358442
1502.000000	102.355016
1501.000000	102.376266
1500.000000	102.364265
1499.000000	102.358880
1498.000000	102.387263
1497.000000	102.379326
1496.000000	102.385937
1495.000000	102.368347
1494.000000	102.366967
1493.000000	102.391921
1492.000000	102.380191
1491.000000	102.388842
1490.000000	102.404444
1489.000000	102.391319
1488.000000	102.424421
1487.000000	102.404224
1486.000000	102.398058
1485.000000	102.388643
1484.000000	102.417470
1483.000000	102.406166
1482.000000	102.403761
1481.000000	102.386749
1480.000000	102.430716
1479.000000	102.436464
1478.000000	102.430922
1477.000000	102.423873
1476.000000	102.427101
1475.000000	102.460096
1474.000000	102.428039
1473.000000	102.433312
1472.000000	102.450370
1471.000000	102.462225
1470.000000	102.463258
1469.000000	102.459375
1468.000000	102.462478
1467.000000	102.452158
1466.000000	102.469588
1465.000000	102.459077
1464.000000	102.478656
1463.000000	102.467931
1462.000000	102.461684
1461.000000	102.451320
1460.000000	102.469216
1459.000000	102.464164
1458.000000	102.479807
1457.000000	102.475822
1456.000000	102.469637
1455.000000	102.485158
1454.000000	102.458300
1453.000000	102.475384
1452.000000	102.470489
1451.000000	102.479424
1450.000000	102.486404
1449.000000	102.516355
1448.000000	102.498305
1447.000000	102.480305
1446.000000	102.496261
1445.000000	102.499290
1444.000000	102.499352
1443.000000	102.508875
1442.000000	102.495201
1441.000000	102.494324
1440.000000	102.504801
1439.000000	102.522496
1438.000000	102.506500
1437.000000	102.511803
1436.000000	102.512708
1435.000000	102.522998
1434.000000	102.536409
1433.000000	102.508398
1432.000000	102.527868
1431.000000	102.527301
1430.000000	102.536720
1429.000000	102.539212
1428.000000	102.525263
1427.000000	102.520109
1426.000000	102.520106
1425.000000	102.535625
1424.000000	102.553441
1423.000000	102.525787
1422.000000	102.558401
1421.000000	102.539958
1420.000000	102.551901
1419.000000	102.576043
1418.000000	102.552837
1417.000000	102.556280
1416.000000	102.560257
1415.000000	102.564054
1414.000000	102.577842
1413.000000	102.575085
1412.000000	102.574779
1411.000000	102.599361
1410.000000	102.608300
1409.000000	102.609137
1408.000000	102.622330
1407.000000	102.625369
1406.000000	102.631267
1405.000000	102.653837
1404.000000	102.669554
1403.000000	102.649577
1402.000000	102.673352
1401.000000	102.686660
1400.000000	102.690204
1399.000000	102.715273
1398.000000	102.724307
1397.000000	102.722559
1396.000000	102.736360
1395.000000	102.753180
1394.000000	102.772876
1393.000000	102.766214
1392.000000	102.781081
1391.000000	102.780239
1390.000000	102.799949
1389.000000	102.793047
1388.000000	102.808163
1387.000000	102.822529
1386.000000	102.812093
1385.000000	102.827026
1384.000000	102.842071
1383.000000	102.842100
1382.000000	102.852976
1381.000000	102.878116
1380.000000	102.878769
1379.000000	102.895486
1378.000000	102.874563
1377.000000	102.890213
1376.000000	102.931062
1375.000000	102.960272
1374.000000	102.937159
1373.000000	102.937630
1372.000000	102.937470
1371.000000	102.941668
1370.000000	102.940792
1369.000000	102.945093
1368.000000	102.962259
1367.000000	102.958184
1366.000000	102.954557
1365.000000	102.973071
1364.000000	102.981341
1363.000000	102.952737
1362.000000	102.881206
1361.000000	102.970969
1360.000000	103.062417
1359.000000	102.986758
1358.000000	103.035818
1357.000000	103.063398
1356.000000	103.060235
1355.000000	103.007764
1354.000000	102.951027
1353.000000	102.972813
1352.000000	103.027532
1351.000000	103.084978
1350.000000	103.083112
1349.000000	103.094618
1348.000000	103.110660
1347.000000	103.109425
1346.000000	103.101555
1345.000000	103.107601
1344.000000	103.108150
1343.000000	103.126894
1342.000000	103.126248
1341.000000	103.133121
1340.000000	103.138130
1339.000000	103.147222
1338.000000	103.162711
1337.000000	103.153990
1336.000000	103.154632
1335.000000	103.177725
1334.000000	103.195998
1333.000000	103.185637
1332.000000	103.185278
1331.000000	103.202362
1330.000000	103.214372
1329.000000	103.218222
1328.000000	103.224042
1327.000000	103.239703
1326.000000	103.248291
1325.000000	103.237705
1324.000000	103.241636
1323.000000	103.260423
1322.000000	103.269477
1321.000000	103.278773
1320.000000	103.273257
1319.000000	103.285514
1318.000000	103.291568
1317.000000	103.291493
1316.000000	103.304670
1315.000000	103.314059
1314.000000	103.316500
1313.000000	103.328984
1312.000000	103.339588
1311.000000	103.350977
1310.000000	103.348874
1309.000000	103.350037
1308.000000	103.357972
1307.000000	103.363034
1306.000000	103.378760
1305.000000	103.383527
1304.000000	103.384798
1303.000000	103.395408
1302.000000	103.412603
1301.000000	103.422369
1300.000000	103.434333
1299.000000	103.440320
1298.000000	103.456308
1297.000000	103.446150
1296.000000	103.452667
1295.000000	103.469065
1294.000000	103.486508
1293.000000	103.489634
1292.000000	103.488630
1291.000000	103.505471
1290.000000	103.512139
1289.000000	103.515965
1288.000000	103.522602
1287.000000	103.540879
1286.000000	103.547646
1285.000000	103.565165
1284.000000	103.559530
1283.000000	103.557676
1282.000000	103.579569
1281.000000	103.595362
1280.000000	103.603118
1279.000000	103.597665
1278.000000	103.610510
1277.000000	103.617115
1276.000000	103.626926
1275.000000	103.613818
1274.000000	103.637114
1273.000000	103.645655
1272.000000	103.649509
1271.000000	103.662788
1270.000000	103.673606
1269.000000	103.696169
1268.000000	103.708004
1267.000000	103.706332
1266.000000	103.726873
1265.000000	103.724098
1264.000000	103.748267
1263.000000	103.754698
1262.000000	103.764990
1261.000000	103.762652
1260.000000	103.784629
1259.000000	103.790944
1258.000000	103.791186
1257.000000	103.792137
1256.000000	103.810202
1255.000000	103.812804
1254.000000	103.841209
1253.000000	103.856283
1252.000000	103.861896
1251.000000	103.878843
1250.000000	103.888181
1249.000000	103.906532
1248.000000	103.894267
1247.000000	103.905983
1246.000000	103.917856
1245.000000	103.924997
1244.000000	103.936521
1243.000000	103.942552
1242.000000	103.969774
1241.000000	103.973660
1240.000000	103.971276
1239.000000	103.992106
1238.000000	104.019827
1237.000000	104.005850
1236.000000	104.028379
1235.000000	104.024044
1234.000000	104.044202
1233.000000	104.045431
1232.000000	104.069313
1231.000000	104.086091
1230.000000	104.097131
1229.000000	104.092386
1228.000000	104.101230
1227.000000	104.122458
1226.000000	104.140349
1225.000000	104.146112
1224.000000	104.146957
1223.000000	104.162708
1222.000000	104.176915
1221.000000	104.203507
1220.000000	104.210690
1219.000000	104.218573
1218.000000	104.232618
1217.000000	104.261457
1216.000000	104.250557
1215.000000	104.270673
1214.000000	104.284903
1213.000000	104.306034
1212.000000	104.312611
1211.000000	104.333875
1210.000000	104.339981
1209.000000	104.353437
1208.000000	104.360624
1207.000000	104.355793
1206.000000	104.404213
1205.000000	104.405091
1204.000000	104.423464
1203.000000	104.444031
1202.000000	104.441962
1201.000000	104.459067
1200.000000	104.472111
1199.000000	104.504540
1198.000000	104.531683
1197.000000	104.532596
1196.000000	104.520857
1195.000000	104.545746
1194.000000	104.565520
1193.000000	104.558878
1192.000000	104.581467
1191.000000	104.595802
1190.000000	104.598685
1189.000000	104.634906
1188.000000	104.636874
1187.000000	104.666543
1186.000000	104.657202
1185.000000	104.688411
1184.000000	104.673964
1183.000000	104.710551
1182.000000	104.728564
1181.000000	104.750249
1180.000000	104.756861
1179.000000	104.775261
1178.000000	104.796757
1177.000000	104.790093
1176.000000	104.806096
1175.000000	104.838540
1174.000000	104.853635
1173.000000	104.876048
1172.000000	104.893920
1171.000000	104.890960
1170.000000	104.936140
1169.000000	104.948969
1168.000000	104.937012
1167.000000	104.965109
1166.000000	104.997451
1165.000000	104.998456
1164.000000	105.015420
1163.000000	105.012727
1162.000000	105.044580
1161.000000	105.066427
1160.000000	105.084490
1159.000000	105.083601
1158.000000	105.142157
1157.000000	105.122291
1156.000000	105.159714
1155.000000	105.201836
1154.000000	105.206425
1153.000000	105.219109
1152.000000	105.232432
1151.000000	105.240016
1150.000000	105.263776
1149.000000	105.278913
1148.000000	105.296205
1147.000000	105.321174
1146.000000	105.341191
1145.000000	105.357701
1144.000000	105.373500
1143.000000	105.425748
1142.000000	105.423381
1141.000000	105.448349
1140.000000	105.457340
1139.000000	105.479939
1138.000000	105.482679
1137.000000	105.513864
1136.000000	105.544276
1135.000000	105.570497
1134.000000	105.582372
1133.000000	105.605356
1132.000000	105.626274
1131.000000	105.656387
1130.000000	105.673199
1129.000000	105.677059
1128.000000	105.697742
1127.000000	105.712211
1126.000000	105.739099
1125.000000	105.772286
1124.000000	105.796476
1123.000000	105.812081
1122.000000	105.819081
1121.000000	105.850221
1120.000000	105.892339
1119.000000	105.908301
1118.000000	105.919789
1117.000000	105.940097
1116.000000	105.959203
1115.000000	105.991058
1114.000000	106.023280
1113.000000	106.039250
1112.000000	106.049397
1111.000000	106.048732
1110.000000	105.998366
1109.000000	106.024640
1108.000000	106.028951
1107.000000	106.049003
1106.000000	106.077930
1105.000000	106.104188
1104.000000	106.130373
1103.000000	106.164252
1102.000000	106.187234
1101.000000	106.202758
1100.000000	106.225237
1099.000000	106.264671
1098.000000	106.291358
1097.000000	106.302423
1096.000000	106.313156
1095.000000	106.341169
1094.000000	106.364752
1093.000000	106.396607
1092.000000	106.444200
1091.000000	106.509127
1090.000000	106.546485
1089.000000	106.505787
1088.000000	106.537717
1087.000000	106.571043
1086.000000	106.601413
1085.000000	106.640473
1084.000000	106.641834
1083.000000	106.681637
1082.000000	106.801066
1081.000000	106.947766
1080.000000	106.974021
1079.000000	106.988582
1078.000000	107.023267
1077.000000	107.052391
1076.000000	107.086771
1075.000000	107.101380
1074.000000	107.025021
1073.000000	106.965089
1072.000000	106.985158
1071.000000	107.011746
1070.000000	107.046684
1069.000000	107.079136
1068.000000	107.112296
1067.000000	107.131893
1066.000000	107.166707
1065.000000	107.210300
1064.000000	107.239744
1063.000000	107.282090
1062.000000	107.327776
1061.000000	107.404054
1060.000000	107.481406
1059.000000	107.529888
1058.000000	107.564848
1057.000000	107.592414
1056.000000	107.634687
1055.000000	107.677644
1054.000000	107.700303
1053.000000	107.747530
1052.000000	107.796444
1051.000000	107.834481
1050.000000	107.871137
1049.000000	107.886155
1048.000000	107.915328
1047.000000	107.940157
1046.000000	107.983942
1045.000000	108.028393
1044.000000	108.073578
1043.000000	108.121561
1042.000000	108.161691
1041.000000	108.199884
1040.000000	108.228176
1039.000000	108.272966
1038.000000	108.330914
1037.000000	108.350608
1036.000000	108.396610
1035.000000	108.446538
1034.000000	108.478816
1033.000000	108.513991
1032.000000	108.550423
1031.000000	108.606409
1030.000000	108.668703
1029.000000	108.710532
1028.000000	108.737201
1027.000000	108.769011
1026.000000	108.860086
1025.000000	108.883961
1024.000000	108.924648
1023.000000	108.996319
1022.000000	109.024092
1021.000000	109.064445
1020.000000	109.107358
1019.000000	109.149646
1018.000000	109.231622
1017.000000	109.261675
1016.000000	109.271767
1015.000000	109.327400
1014.000000	109.399495
1013.000000	109.457663
1012.000000	109.497509
1011.000000	109.547407
1010.000000	109.573535
1009.000000	109.620770
1008.000000	109.700759
1007.000000	109.809282
1006.000000	109.847052
1005.000000	109.861414
1004.000000	109.936033
1003.000000	109.975021
1002.000000	110.042357
1001.000000	110.091086
1000.000000	110.143558
999.000000	110.201882
998.000000	110.256504
997.000000	110.336683
996.000000	110.403419
995.000000	110.444416
994.000000	110.524394
993.000000	110.572000
992.000000	110.636159
991.000000	110.681249
990.000000	110.735485
989.000000	110.816072
988.000000	110.910643
987.000000	110.944923
986.000000	111.029692
985.000000	111.073277
984.000000	111.150546
983.000000	111.204186
982.000000	111.142270
981.000000	111.180420
980.000000	111.245662
979.000000	111.306618
978.000000	111.539252
977.000000	111.640309
976.000000	111.572067
975.000000	111.573688
974.000000	111.677573
973.000000	111.766119
972.000000	111.789025
971.000000	111.822538
970.000000	111.964573
969.000000	112.169434
968.000000	112.261996
967.000000	112.349671
966.000000	112.430961
965.000000	112.558087
964.000000	112.621673
963.000000	112.718479
962.000000	112.806827
961.000000	112.852106
960.000000	112.989501
959.000000	113.056442
958.000000	113.171927
957.000000	113.193428
956.000000	113.357752
955.000000	113.426353
954.000000	113.494375
953.000000	113.644381
952.000000	113.668827
951.000000	113.722658
950.000000	113.889072
949.000000	114.027958
948.000000	114.060471
947.000000	114.185729
946.000000	114.298170
945.000000	114.382806
944.000000	114.427748
943.000000	114.522476
942.000000	114.630215
941.000000	114.776716
940.000000	114.861282
939.000000	114.943705
938.000000	115.063276
937.000000	115.145452
936.000000	115.362780
935.000000	115.381413
934.000000	115.489706
933.000000	115.623740
932.000000	115.701161
931.000000	115.846593
930.000000	116.033791
929.000000	115.946785
928.000000	116.054432
927.000000	116.107193
926.000000	116.266925
925.000000	116.427522
924.000000	116.422516
923.000000	116.615749
922.000000	116.707990
921.000000	116.915388
920.000000	116.972018
919.000000	117.370273
918.000000	117.317658
917.000000	117.594491
916.000000	117.790222
915.000000	117.907375
914.000000	117.938895
913.000000	117.988722
912.000000	118.262895
911.000000	118.342846
910.000000	118.461177
909.000000	118.540055
908.000000	118.730212
907.000000	118.987982
906.000000	119.117650
905.000000	119.074041
904.000000	119.325690
903.000000	119.459122
902.000000	119.549670
901.000000	119.636835
900.000000	119.683094
899.000000	119.856562
898.000000	120.254325
897.000000	120.327018
896.000000	120.500788
895.000000	120.710593
894.000000	120.849595
893.000000	120.879810
892.000000	120.916217
891.000000	120.989053
890.000000	121.279728
889.000000	121.478476
888.000000	121.681845
887.000000	121.557582
886.000000	121.735072
885.000000	121.838417
884.000000	121.993587
883.000000	122.354462
882.000000	122.463880
881.000000	122.676548
880.000000	122.912478
879.000000	122.897638
878.000000	122.904249
877.000000	123.104671
876.000000	123.411139
875.000000	123.534341
874.000000	123.636702
873.000000	123.826762
872.000000	123.911416
871.000000	124.180617
870.000000	124.255088
869.000000	124.323494
868.000000	124.421059
867.000000	124.495969
866.000000	124.772476
865.000000	124.621051
864.000000	124.853678
863.000000	125.251530
862.000000	124.981513
861.000000	125.188462
860.000000	125.561509
859.000000	125.834149
858.000000	126.033123
857.000000	125.776409
856.000000	125.819397
855.000000	125.799597
854.000000	125.852479
853.000000	126.302016
852.000000	126.164740
851.000000	126.289105
850.000000	126.416307
849.000000	126.585345
848.000000	126.227734
847.000000	126.420370
846.000000	126.767023
845.000000	126.924006
844.000000	126.934865
843.000000	127.055504
842.000000	126.996421
841.000000	126.997062
840.000000	127.145505
839.000000	126.913564
838.000000	126.975604
837.000000	127.117880
836.000000	127.090276
835.000000	127.228795
834.000000	127.202820
833.000000	127.105481
832.000000	126.979491
831.000000	126.994735
830.000000	127.111454
829.000000	127.176274
828.000000	127.001708
827.000000	126.803311
826.000000	126.754372
825.000000	126.725275
824.000000	126.750609
823.000000	126.746126
822.000000	126.707781
821.000000	126.560164
820.000000	126.484490
819.000000	126.509127
818.000000	126.501130
817.000000	126.420411
816.000000	126.211501
815.000000	126.051195
814.000000	126.064586
813.000000	126.036377
812.000000	125.880219
811.000000	125.781655
810.000000	125.658972
809.000000	125.490062
808.000000	125.418886
807.000000	125.342395
806.000000	125.221110
805.000000	125.199580
804.000000	125.164520
803.000000	125.019032
802.000000	124.852614
801.000000	124.759398
800.000000	124.691912
799.000000	124.539408
798.000000	124.316271
797.000000	124.156565
796.000000	124.064812
795.000000	123.902092
794.000000	123.762862
793.000000	123.686174
792.000000	123.536462
791.000000	123.383471
790.000000	123.296683
789.000000	123.173928
788.000000	122.899731
787.000000	122.767524
786.000000	122.712974
785.000000	122.588509
784.000000	122.468617
783.000000	122.378739
782.000000	122.225783
781.000000	122.118221
780.000000	121.982660
779.000000	121.775000
778.000000	121.596552
777.000000	121.456504
776.000000	121.399262
775.000000	121.257540
774.000000	121.030367
773.000000	120.984330
772.000000	120.878366
771.000000	120.749269
770.000000	120.677340
769.000000	120.472677
768.000000	120.339905
767.000000	120.192832
766.000000	120.049129
765.000000	119.909544
764.000000	119.866399
763.000000	119.709509
762.000000	119.523435
761.000000	119.384862
760.000000	119.265224
759.000000	119.221401
758.000000	119.094276
757.000000	118.930705
756.000000	118.811339
755.000000	118.710289
754.000000	118.610190
753.000000	118.503618
752.000000	118.363810
751.000000	118.268021
750.000000	118.144441
749.000000	117.985771
748.000000	117.849754
747.000000	117.757043
746.000000	117.578510
745.000000	117.501155
744.000000	117.393188
743.000000	117.311821
742.000000	117.158942
741.000000	117.058117
740.000000	116.957561
739.000000	116.838762
738.000000	116.734133
737.000000	116.590977
736.000000	116.460980
735.000000	116.449493
734.000000	116.306043
733.000000	116.259291
732.000000	116.084316
731.000000	116.005040
730.000000	115.942127
729.000000	115.858051
728.000000	115.707883
727.000000	115.655516
726.000000	115.553477
725.000000	115.366084
724.000000	115.299363
723.000000	115.218809
722.000000	115.116273
721.000000	115.042941
720.000000	114.959779
719.000000	114.842580
718.000000	114.786744
717.000000	114.671586
716.000000	114.555262
715.000000	114.507206
714.000000	114.343168
713.000000	114.224745
712.000000	114.196495
711.000000	114.066740
710.000000	113.982587
709.000000	113.920128
708.000000	113.821467
707.000000	113.776350
706.000000	113.691537
705.000000	113.630267
704.000000	113.477379
703.000000	113.441901
702.000000	113.357662
701.000000	113.199324
700.000000	113.134698
699.000000	113.102461
698.000000	113.073510
697.000000	112.931540
696.000000	112.831136
695.000000	112.706491
694.000000	112.671288
693.000000	112.601068
692.000000	112.557039
691.000000	112.410560
690.000000	112.330305
689.000000	112.300324
688.000000	112.179381
687.000000	112.115202
686.000000	112.017683
685.000000	112.037666
684.000000	111.858550
683.000000	111.824547
682.000000	111.701199
681.000000	111.637681
680.000000	111.627067
679.000000	111.533987
678.000000	111.428906
677.000000	111.371554
676.000000	111.292359
675.000000	111.208210
674.000000	111.206104
673.000000	111.113273
672.000000	110.973012
671.000000	110.902059
670.000000	110.823638
669.000000	110.787805
668.000000	110.694213
667.000000	110.681435
666.000000	110.624876
665.000000	110.479573
664.000000	110.444473
663.000000	110.391562
662.000000	110.344022
661.000000	110.255618
660.000000	110.140529
659.000000	110.118680
658.000000	110.047002
657.000000	109.989758
656.000000	109.917347
655.000000	109.868344
654.000000	109.820265
653.000000	109.758446
652.000000	109.695668
651.000000	109.650264
650.000000	109.539890
649.000000	109.523674
648.000000	109.380013
647.000000	109.362142
646.000000	109.305866
645.000000	109.282228
644.000000	109.195285
643.000000	109.167591
642.000000	109.097312
641.000000	109.085309
640.000000	108.981859
639.000000	108.964324
638.000000	108.898198
637.000000	108.803300
636.000000	108.745952
635.000000	108.677147
634.000000	108.627980
633.000000	108.592400
632.000000	108.515545
631.000000	108.446834
630.000000	108.388553
629.000000	108.363759
628.000000	108.327462
627.000000	108.306218
626.000000	108.235529
625.000000	108.152550
624.000000	108.088679
623.000000	108.102850
622.000000	108.002425
621.000000	107.944615
620.000000	107.908554
619.000000	107.861077
618.000000	107.808088
617.000000	107.791993
616.000000	107.726897
615.000000	107.680506
614.000000	107.618684
613.000000	107.607939
612.000000	107.554760
611.000000	107.493989
610.000000	107.457821
609.000000	107.406253
608.000000	107.347884
607.000000	107.314878
606.000000	107.270049
605.000000	107.212984
604.000000	107.184279
603.000000	107.135983
602.000000	107.102875
601.000000	107.078742
600.000000	107.044097
599.000000	106.982596
598.000000	106.952269
597.000000	106.917462
596.000000	106.855801
595.000000	106.850058
594.000000	106.772947
593.000000	106.739755
592.000000	106.697407
591.000000	106.671925
590.000000	106.619141
589.000000	106.602947
588.000000	106.569594
587.000000	106.550111
586.000000	106.512764
585.000000	106.457239
584.000000	106.428100
583.000000	106.399066
582.000000	106.357614
581.000000	106.318918
580.000000	106.267734
579.000000	106.257038
578.000000	106.236642
577.000000	106.206369
576.000000	106.156453
575.000000	106.130783
574.000000	106.091758
573.000000	106.035323
572.000000	106.012554
571.000000	105.990042
570.000000	105.972057
569.000000	105.951348
568.000000	105.890933
567.000000	105.837874
566.000000	105.809655
565.000000	105.797071
564.000000	105.761925
563.000000	105.708870
562.000000	105.663034
561.000000	105.650236
560.000000	105.611924
559.000000	105.581257
558.000000	105.551465
557.000000	105.498465
556.000000	105.452694
555.000000	105.442294
554.000000	105.428237
553.000000	105.382156
552.000000	105.350107
551.000000	105.322597
550.000000	105.300239
549.000000	105.276405
548.000000	105.243633
547.000000	105.218647
546.000000	105.183099
545.000000	105.134916
544.000000	105.097246
543.000000	105.082363
542.000000	105.044510
541.000000	105.012648
540.000000	104.993481
539.000000	104.972639
538.000000	104.951524
537.000000	104.908855
536.000000	104.875635
535.000000	104.865103
534.000000	104.823302
533.000000	104.803438
532.000000	104.782408
531.000000	104.755904
530.000000	104.725681
529.000000	104.701548
528.000000	104.682718
527.000000	104.662864
526.000000	104.602514
525.000000	104.610794
524.000000	104.588020
523.000000	104.552389
522.000000	104.523867
521.000000	104.497329
520.000000	104.471854
519.000000	104.446880
518.000000	104.403486
517.000000	104.383710
516.000000	104.387525
515.000000	104.363256
514.000000	104.331344
513.000000	104.311229
512.000000	104.295159
511.000000	104.270818
510.000000	104.255593
509.000000	104.230653
508.000000	104.208419
507.000000	104.174140
506.000000	104.149947
505.000000	104.129174
504.000000	104.111328
503.000000	104.116412
502.000000	104.108966
501.000000	104.102351
500.000000	104.071437
499.000000	104.003793
498.000000	103.988462
497.000000	104.014678
496.000000	103.952447
495.000000	103.929559
494.000000	103.911987
493.000000	103.928447
492.000000	103.868972
491.000000	103.846136
490.000000	103.847011
489.000000	103.870879
488.000000	103.837426
487.000000	103.840539
486.000000	103.812652
485.000000	103.800478
484.000000	103.784575
483.000000	103.763051
482.000000	103.749705
481.000000	103.737676
480.000000	103.706312
479.000000	103.711608
478.000000	103.670031
477.000000	103.684936
476.000000	103.641632
475.000000	103.651327
474.000000	103.620184
473.000000	103.609891
472.000000	103.630291
471.000000	103.564926
470.000000	103.570123
469.000000	103.576563
468.000000	103.557549
467.000000	103.571563
466.000000	103.549723
465.000000	103.567334
464.000000	103.517194
463.000000	103.498344
462.000000	103.472110
461.000000	103.454780
460.000000	103.432315
459.000000	103.443491
458.000000	103.416527
457.000000	103.393777
456.000000	103.415752
455.000000	103.380782
454.000000	103.353811
453.000000	103.353183
452.000000	103.323528
451.000000	103.343822
450.000000	103.350642
449.000000	103.266005
448.000000	103.332536
447.000000	103.366290
446.000000	103.327840
445.000000	103.273779
444.000000	103.243509
443.000000	103.301683
442.000000	103.233733
441.000000	103.271955
440.000000	103.227879
439.000000	103.313470
438.000000	103.269413
437.000000	103.295835
436.000000	103.249296
435.000000	103.248407
434.000000	103.196862
433.000000	103.252877
432.000000	103.271012
431.000000	103.213509
430.000000	103.232267
429.000000	103.239482
428.000000	103.219862
427.000000	103.240752
426.000000	103.146136
425.000000	103.198709
424.000000	103.174087
423.000000	103.226225
422.000000	103.166204
421.000000	103.183537
420.000000	103.163332
419.000000	103.123548
418.000000	103.125547
417.000000	103.103263
416.000000	103.142669
415.000000	103.121891
414.000000	103.131385
413.000000	103.083696
412.000000	103.104367
411.000000	103.080605
410.000000	103.035616
409.000000	103.060632
408.000000	103.029412
407.000000	103.080279
406.000000	102.990375
405.000000	102.985598
404.000000	102.993422
403.000000	102.981637
402.000000	102.950600
401.000000	102.887407
400.000000	102.876744
399.000000	102.742995
398.000000	102.699735
397.000000	102.711898
396.000000	102.635178
395.000000	102.622157
394.000000	102.508186
393.000000	102.511623
392.000000	102.374267
391.000000	102.336730
390.000000	102.303231
389.000000	102.123660
388.000000	102.094483
387.000000	102.015594
386.000000	101.942177
385.000000	101.820495
384.000000	101.631282
383.000000	101.556512
382.000000	101.487495
381.000000	101.316278
380.000000	101.225783
379.000000	101.224714
378.000000	101.108567
377.000000	100.737461
376.000000	100.861345
375.000000	100.784920
374.000000	100.659739
373.000000	100.645939
372.000000	100.545246
371.000000	100.389678
370.000000	100.190571
369.000000	99.981780
368.000000	99.846307
367.000000	99.665102
366.000000	99.546564
365.000000	99.365087
364.000000	99.211044
363.000000	99.077897
362.000000	98.793551
361.000000	98.509928
360.000000	98.149462
359.000000	97.776563
358.000000	97.497403
357.000000	97.182864
356.000000	96.789060
355.000000	96.457269
354.000000	95.888676
353.000000	95.383053
352.000000	94.824147
351.000000	94.122781
350.000000	93.515466
349.000000	92.775677
348.000000	91.950850
347.000000	91.188725
346.000000	90.165370
345.000000	89.160046
344.000000	88.150969
343.000000	87.059930
342.000000	85.759347
341.000000	84.353314
340.000000	82.920809
339.000000	81.508430
338.000000	79.882794
337.000000	78.063124
336.000000	76.152556
335.000000	73.995114
334.000000	71.686711
333.000000	69.210409
332.000000	66.427134
331.000000	63.241834
330.000000	59.670068
329.000000	55.735045
328.000000	51.448044
327.000000	47.073597
326.000000	42.460261
325.000000	37.780949
324.000000	33.039263
323.000000	28.163051
322.000000	23.478683
321.000000	19.213546
320.000000	15.488364
319.000000	12.464052
318.000000	10.255973
317.000000	8.758837
316.000000	7.832704
315.000000	7.366938
314.000000	7.218985
313.000000	7.279886
312.000000	7.458272
311.000000	7.686994
310.000000	7.901838
309.000000	8.088482
308.000000	8.246538
307.000000	8.370076
306.000000	8.460594
305.000000	8.529209
304.000000	8.580746
303.000000	8.595761
302.000000	8.599221
301.000000	8.590904
300.000000	8.556250
299.000000	8.508391
298.000000	8.437175
297.000000	8.331604
296.000000	8.197663
295.000000	8.065188
294.000000	7.914964
293.000000	7.766903
292.000000	7.615606
291.000000	7.437803
290.000000	7.268879
289.000000	7.112803
288.000000	6.960367
287.000000	6.821917
286.000000	6.688886
285.000000	6.545774
284.000000	6.420526
283.000000	6.309311
282.000000	6.215303
281.000000	6.133038
280.000000	6.050760
279.000000	5.976579
278.000000	5.922605
277.000000	5.886564
276.000000	5.843465
275.000000	5.813931
274.000000	5.786914
273.000000	5.758090
272.000000	5.750257
271.000000	5.752714
270.000000	5.759484
269.000000	5.757663
268.000000	5.757902
267.000000	5.770641
266.000000	5.782155
265.000000	5.791002
264.000000	5.816135
263.000000	5.840291
262.000000	5.879867
261.000000	5.901684
260.000000	5.931583
259.000000	5.961101
258.000000	6.004279
257.000000	6.044751
256.000000	6.085281
255.000000	6.122618
254.000000	6.161856
253.000000	6.200226
252.000000	6.243816
251.000000	6.311591
250.000000	6.359880
